flow depth [m],16th percentile vulnerability,median vulnerability,84th percentile vulnerability
0.000001,0.003557292,0.003675567,0.003797775
0.01,0.003560073,0.003679614,0.003803168
0.02,0.003544586,0.003690082,0.00384155
0.03,0.00351457,0.003706621,0.003909166
0.04,0.003471952,0.003723099,0.003992413
0.05,0.003432878,0.003755758,0.004109008
0.06,0.003388482,0.003792977,0.004245757
0.07,0.003348242,0.003838547,0.004400652
0.08,0.003309118,0.003899847,0.00459603
0.09,0.003281531,0.003969063,0.004800644
0.1,0.003245389,0.004050224,0.005054652
0.11,0.003231381,0.004153587,0.005338981
0.12,0.003221861,0.004279815,0.005685167
0.13,0.003225585,0.004421239,0.006060097
0.14,0.003241347,0.004589119,0.006497305
0.15,0.003276299,0.004791214,0.007006603
0.16,0.003329034,0.005028384,0.007595191
0.17,0.003398107,0.005287981,0.008228918
0.18,0.003503243,0.005614502,0.00899813
0.19,0.003618552,0.005972004,0.009856106
0.2,0.00376786,0.006385814,0.010822753
0.21,0.003950851,0.006867791,0.011938328
0.22,0.004189593,0.007436447,0.01319955
0.23,0.004468623,0.008077808,0.014602035
0.24,0.004794257,0.008813526,0.016202353
0.25,0.005181796,0.009663839,0.018022668
0.26,0.005662423,0.010650293,0.020031838
0.27,0.006205532,0.011749025,0.022244599
0.28,0.006856664,0.012987457,0.024600015
0.29,0.007610386,0.014438755,0.027393832
0.3,0.008475404,0.016000845,0.030208239
0.31,0.009488558,0.01781349,0.033442429
0.32,0.010631735,0.019837053,0.03701265
0.33,0.011934785,0.021996308,0.040540114
0.34,0.013416017,0.02452672,0.044838941
0.35,0.015042529,0.027186288,0.049133644
0.36,0.016912037,0.030065223,0.053448184
0.37,0.018916734,0.033220876,0.058341288
0.38,0.021103726,0.036625946,0.063565076
0.39,0.023608361,0.040291458,0.068763841
0.4,0.026219777,0.044128155,0.074268142
0.41,0.028941391,0.048032411,0.079716712
0.42,0.03189655,0.052211469,0.085464963
0.43,0.035017688,0.056533838,0.091270297
0.44,0.038338493,0.060967363,0.096952674
0.45,0.041736703,0.065557967,0.10297524
0.46,0.045442408,0.070472917,0.109290687
0.47,0.049140446,0.075103149,0.114782901
0.48,0.053020672,0.080037073,0.120819536
0.49,0.057039954,0.084889079,0.12633523
0.5,0.061109956,0.089823793,0.132029448
0.51,0.0653894,0.09476207,0.137328831
0.52,0.069434128,0.099384957,0.142255256
0.53,0.073660674,0.104283229,0.147636334
0.54,0.077787156,0.108965783,0.152641418
0.55,0.082047678,0.113638784,0.157393523
0.56,0.086607266,0.118394065,0.161847327
0.57,0.091006565,0.122861782,0.165867347
0.58,0.095437715,0.127517768,0.170381082
0.59,0.099062575,0.131399736,0.17429277
0.6,0.103577302,0.135889952,0.178283066
0.61,0.107645137,0.139857835,0.181710149
0.62,0.111897331,0.143923141,0.185114966
0.63,0.115939401,0.147766609,0.188330892
0.64,0.119832671,0.151635694,0.191879089
0.65,0.123918025,0.155288573,0.194600753
0.66,0.127641561,0.158844295,0.197674722
0.67,0.131194467,0.162343332,0.200887722
0.68,0.134997829,0.165663229,0.203294421
0.69,0.138396357,0.169080341,0.2065673
0.7,0.14187584,0.172271666,0.209179568
0.71,0.145694168,0.175502386,0.2114092
0.72,0.148742219,0.178534048,0.214292934
0.73,0.152380495,0.181693356,0.216645021
0.74,0.155178021,0.184433629,0.219204776
0.75,0.158579352,0.187474453,0.221634595
0.76,0.161187224,0.190065632,0.224117914
0.77,0.164819815,0.193154758,0.226360892
0.78,0.167563323,0.195807169,0.228811691
0.79,0.170631697,0.198666401,0.231307194
0.8,0.173298495,0.201336442,0.233910645
0.81,0.176033485,0.203881403,0.236134769
0.82,0.1791741,0.206920171,0.238962871
0.83,0.181590201,0.209340151,0.241330746
0.84,0.184496623,0.212166448,0.243986048
0.85,0.187560271,0.215015358,0.246489322
0.86,0.18961424,0.217445154,0.249360994
0.87,0.192437436,0.220144627,0.251841107
0.88,0.195060432,0.222940958,0.254806526
0.89,0.197683738,0.225568375,0.257386329
0.9,0.200087465,0.228183557,0.260224875
0.91,0.202914286,0.23104332,0.263071747
0.92,0.205919674,0.234050149,0.2660235
0.93,0.208449965,0.236915052,0.269267218
0.94,0.210641715,0.239289171,0.271832707
0.95,0.213484451,0.242263073,0.274921178
0.96,0.216316961,0.24538882,0.278367784
0.97,0.21856237,0.248097943,0.281624826
0.98,0.221580076,0.251205493,0.28479185
0.99,0.22453308,0.254309766,0.288035319
1,0.227453423,0.257448777,0.291399759
1.01,0.230119216,0.260449331,0.294777007
1.02,0.23298775,0.263706318,0.298475015
1.03,0.236218929,0.267071379,0.301953453
1.04,0.239222022,0.270368375,0.305569936
1.05,0.242412803,0.273652001,0.308916925
1.06,0.244983392,0.276784852,0.312714481
1.07,0.248147845,0.280159681,0.316301141
1.08,0.251626169,0.284005891,0.320552296
1.09,0.254728832,0.287184325,0.323775036
1.1,0.257943516,0.290790236,0.327819681
1.11,0.261166063,0.29414678,0.331292386
1.12,0.264317277,0.297857648,0.335654103
1.13,0.268481931,0.301831463,0.339323512
1.14,0.271551243,0.305429168,0.343533601
1.15,0.275299938,0.309281523,0.347457618
1.16,0.278445509,0.31314643,0.35217191
1.17,0.28234246,0.316942427,0.355782485
1.18,0.285528281,0.320514378,0.35978736
1.19,0.289986879,0.324974901,0.364184361
1.2,0.29366655,0.329226815,0.369093096
1.21,0.297829753,0.333142136,0.372641355
1.22,0.301534547,0.337283959,0.37727176
1.23,0.305306073,0.341484028,0.381948975
1.24,0.30901133,0.3454222,0.38612337
1.25,0.313346998,0.3495624,0.389963434
1.26,0.317203466,0.353889573,0.394818605
1.27,0.321699147,0.358515266,0.399544722
1.28,0.325889207,0.362710274,0.403691624
1.29,0.329931598,0.367302864,0.408907163
1.3,0.334178952,0.372008992,0.414121505
1.31,0.338515486,0.376163343,0.417998191
1.32,0.342715805,0.380628487,0.422735232
1.33,0.347848074,0.385819081,0.427934993
1.34,0.351940992,0.389928048,0.432015269
1.35,0.356640848,0.394681223,0.436779098
1.36,0.360884975,0.399119675,0.441405228
1.37,0.365636015,0.404044777,0.446488241
1.38,0.370641725,0.40914882,0.451656536
1.39,0.374181471,0.413098742,0.456063658
1.4,0.378879989,0.417999306,0.461157689
1.41,0.383868656,0.423003026,0.46612704
1.42,0.388390903,0.427379013,0.470280894
1.43,0.392891264,0.432315197,0.47569505
1.44,0.397588169,0.437038444,0.480403133
1.45,0.40207397,0.441382128,0.48453319
1.46,0.407304155,0.446729992,0.489972134
1.47,0.412096224,0.451666465,0.495036313
1.48,0.415760758,0.456055804,0.500256199
1.49,0.420648839,0.460588043,0.504319341
1.5,0.425265404,0.465400764,0.509323988
1.51,0.430743195,0.470694429,0.514351122
1.52,0.435388591,0.475588985,0.519501171
1.53,0.439275197,0.479909272,0.524302102
1.54,0.444463628,0.484828168,0.528858466
1.55,0.449448714,0.489665942,0.533481858
1.56,0.454321243,0.494966279,0.53924755
1.57,0.458917353,0.499683721,0.544071431
1.58,0.463382045,0.504314728,0.548863184
1.59,0.467817307,0.508676838,0.553105073
1.6,0.472515075,0.513217252,0.557425492
1.61,0.477170799,0.518424481,0.563244739
1.62,0.482040164,0.522747568,0.566892637
1.63,0.486616682,0.527678786,0.572205828
1.64,0.490905169,0.532237094,0.577048975
1.65,0.494899182,0.536465367,0.581522662
1.66,0.500520262,0.542029636,0.586981485
1.67,0.504579741,0.546037923,0.590902467
1.68,0.508281819,0.550313067,0.595819996
1.69,0.513492495,0.55493881,0.599730446
1.7,0.517729037,0.559648979,0.604963132
1.71,0.521616238,0.563647875,0.609066405
1.72,0.527124867,0.568661742,0.613471678
1.73,0.530972166,0.572610626,0.617514343
1.74,0.535540133,0.577469949,0.622682637
1.75,0.539852281,0.581796027,0.626998586
1.76,0.543970356,0.585873008,0.631003469
1.77,0.548429997,0.590280609,0.635324835
1.78,0.55276249,0.594506758,0.639403526
1.79,0.556805747,0.59896735,0.644321451
1.8,0.561069388,0.60308238,0.648241314
1.81,0.565386905,0.607346086,0.652419193
1.82,0.569497241,0.611346293,0.656270589
1.83,0.574208952,0.615867758,0.660548907
1.84,0.57707151,0.61908245,0.664151797
1.85,0.581754524,0.623403332,0.668033849
1.86,0.585700681,0.627425831,0.672123468
1.87,0.589969571,0.631591575,0.676149988
1.88,0.593249577,0.635386155,0.680515558
1.89,0.597792918,0.639283398,0.683653571
1.9,0.601395546,0.643001924,0.687486758
1.91,0.605378964,0.647249024,0.692014959
1.92,0.609895225,0.651502511,0.695948263
1.93,0.611857003,0.654101499,0.699262685
1.94,0.617201669,0.658434604,0.702422158
1.95,0.620394955,0.662353599,0.707149997
1.96,0.624457731,0.665876882,0.71004329
1.97,0.627887494,0.669582561,0.714046402
1.98,0.631468899,0.672738491,0.716705253
1.99,0.635676483,0.676575975,0.720106945
2,0.638453835,0.679824806,0.72387656
2.01,0.642385887,0.68353767,0.72732567
2.02,0.645576297,0.686440582,0.729891531
2.03,0.649070319,0.689804289,0.733094617
2.04,0.652321412,0.692904155,0.736011663
2.05,0.656204532,0.696702211,0.739699205
2.06,0.659412319,0.699808977,0.742680399
2.07,0.662222843,0.702690181,0.745630411
2.08,0.666221727,0.706270039,0.748725758
2.09,0.668939458,0.708894624,0.751236276
2.1,0.672231351,0.712137074,0.754411724
2.11,0.675841034,0.715499943,0.757486069
2.12,0.678861745,0.718374748,0.760187597
2.13,0.682235724,0.721458836,0.762936963
2.14,0.685320742,0.724607216,0.766145813
2.15,0.68858389,0.728015436,0.769705017
2.16,0.690463701,0.72986225,0.771508918
2.17,0.693687082,0.733168067,0.7748961
2.18,0.697285219,0.736223231,0.777335631
2.19,0.699629151,0.73885171,0.780273161
2.2,0.702734903,0.741628148,0.782673961
2.21,0.706221639,0.744707819,0.785291339
2.22,0.709518292,0.747317341,0.787130107
2.23,0.711073632,0.749562704,0.790135117
2.24,0.714579108,0.752455325,0.792339167
2.25,0.71748879,0.755315499,0.79513647
2.26,0.718931975,0.757057331,0.797204496
2.27,0.72204122,0.7599553,0.799860232
2.28,0.725163042,0.762349272,0.801442406
2.29,0.727877677,0.765076411,0.804176214
2.3,0.730453075,0.767893954,0.807253942
2.31,0.732807222,0.769863272,0.808793145
2.32,0.735397734,0.772236648,0.810920967
2.33,0.738204489,0.774820411,0.813252532
2.34,0.739367278,0.776738629,0.815998915
2.35,0.742262629,0.779229122,0.818036636
2.36,0.745554653,0.781663689,0.819521573
2.37,0.747472538,0.783620728,0.821517065
2.38,0.749290704,0.785639404,0.82375141
2.39,0.752781667,0.788280287,0.825452901
2.4,0.754298198,0.79034753,0.828119728
2.41,0.756188478,0.7923738,0.83029067
2.42,0.758494288,0.79453676,0.832291915
2.43,0.760830202,0.796563057,0.833974128
2.44,0.762919391,0.798507597,0.8357559
2.45,0.765467074,0.800582853,0.837309568
2.46,0.767582402,0.802873487,0.839787148
2.47,0.769352271,0.804635191,0.841536205
2.48,0.77217382,0.806843452,0.843069706
2.49,0.774060131,0.808904016,0.845316379
2.5,0.776342888,0.810775582,0.846735449
2.51,0.777597455,0.812297608,0.848546249
2.52,0.779515301,0.814103231,0.850225865
2.53,0.781548538,0.815999922,0.851969955
2.54,0.783567825,0.817870968,0.853675838
2.55,0.785531759,0.819725414,0.855407496
2.56,0.787163672,0.82119526,0.856698141
2.57,0.789362492,0.823108519,0.858297222
2.58,0.790906356,0.824860427,0.860272165
2.59,0.792454427,0.826332146,0.861658151
2.6,0.795028402,0.828472907,0.863324323
2.61,0.796760725,0.829963636,0.864550191
2.62,0.798655191,0.831729133,0.866172735
2.63,0.79990393,0.833145059,0.86776757
2.64,0.80179836,0.834853081,0.869270507
2.65,0.803416166,0.836488232,0.870921686
2.66,0.805229301,0.838035745,0.87217878
2.67,0.807537763,0.840010147,0.873788297
2.68,0.808447244,0.841202135,0.875284117
2.69,0.810381977,0.842829806,0.876576852
2.7,0.811717267,0.844346615,0.878287595
2.71,0.813125077,0.845519261,0.879204001
2.72,0.814681841,0.846898081,0.880388298
2.73,0.816581437,0.848584294,0.881841382
2.74,0.817391427,0.849850757,0.883599075
2.75,0.819605308,0.851469337,0.884572153
2.76,0.821002711,0.852769885,0.885766231
2.77,0.822176358,0.854227538,0.887528181
2.78,0.823739945,0.855668574,0.888834776
2.79,0.825060265,0.856759112,0.889675829
2.8,0.826280637,0.857978296,0.890891937
2.81,0.828345413,0.859689585,0.892219805
2.82,0.829373237,0.860880836,0.893585398
2.83,0.83054607,0.86192125,0.894481677
2.84,0.832278401,0.863687457,0.896281848
2.85,0.833555968,0.864524294,0.896643157
2.86,0.83460703,0.865918244,0.898404133
2.87,0.836392745,0.866919716,0.89856087
2.88,0.837632233,0.868479301,0.900462358
2.89,0.838591407,0.869471878,0.901489499
2.9,0.839522305,0.870403496,0.902420628
2.91,0.84079892,0.87164088,0.903614177
2.92,0.842473255,0.872997189,0.904627045
2.93,0.843472761,0.874155942,0.905955292
2.94,0.844431785,0.875136027,0.906956701
2.95,0.845669116,0.876413238,0.908275055
2.96,0.847076796,0.877661744,0.909351006
2.97,0.847678301,0.878322919,0.910075378
2.98,0.849531098,0.879896291,0.911346841
2.99,0.85051979,0.880742506,0.912039168
3,0.851947159,0.881903977,0.912914158
3.01,0.852358884,0.882736034,0.914195792
3.02,0.854088016,0.883853582,0.914656498
3.03,0.85535155,0.885146737,0.915979804
3.04,0.855716872,0.885628636,0.916585972
3.05,0.857204874,0.886945764,0.91771852
3.06,0.857816016,0.887792013,0.918815509
3.07,0.859057357,0.888803609,0.919579874
3.08,0.85985538,0.889608089,0.920390301
3.09,0.860681816,0.890452977,0.921253929
3.1,0.862124242,0.891882674,0.922668295
3.11,0.862602781,0.892385937,0.923197418
3.12,0.864386557,0.893683976,0.923974399
3.13,0.864905041,0.894315174,0.924725366
3.14,0.8654446,0.895089864,0.925750607
3.15,0.866888964,0.896064801,0.926222574
3.16,0.86822511,0.897036011,0.926802964
3.17,0.868724705,0.897868479,0.927989961
3.18,0.870050511,0.89894359,0.928796165
3.19,0.870612008,0.899680029,0.929718575
3.2,0.871164422,0.900141552,0.930082534
3.21,0.872448151,0.901389969,0.931291877
3.22,0.873163717,0.902126423,0.932049818
3.23,0.874170066,0.90277487,0.932315687
3.24,0.874688016,0.9036522,0.933575496
3.25,0.875628679,0.904369426,0.93405353
3.26,0.876796835,0.905349309,0.934831581
3.27,0.877430116,0.906051091,0.935605655
3.28,0.878059615,0.906829145,0.936541306
3.29,0.87957502,0.907852772,0.937039634
3.3,0.880026082,0.908443539,0.937778641
3.31,0.880723014,0.909055074,0.938298551
3.32,0.881821556,0.909992798,0.939064017
3.33,0.882178348,0.910608697,0.939955285
3.34,0.883254798,0.911449273,0.940543747
3.35,0.883836208,0.912193898,0.941461439
3.36,0.885193018,0.913089133,0.941864371
3.37,0.88538626,0.91342819,0.942358264
3.38,0.885964687,0.914025367,0.942974797
3.39,0.886984864,0.914945182,0.943786889
3.4,0.888194486,0.915845318,0.944356963
3.41,0.888559559,0.916291681,0.944889327
3.42,0.889405911,0.917118201,0.945693956
3.43,0.889966852,0.917557188,0.946002866
3.44,0.890810208,0.918462319,0.946972794
3.45,0.89160626,0.919088639,0.947418119
3.46,0.891613697,0.919408441,0.948069645
3.47,0.892792023,0.920278946,0.948612125
3.48,0.893056131,0.920518636,0.948825646
3.49,0.894223784,0.921378421,0.949357654
3.5,0.894401427,0.921969343,0.950386979
3.51,0.895271073,0.922621516,0.950807512
3.52,0.89589964,0.923088366,0.951102215
3.53,0.896672681,0.923960388,0.952078519
3.54,0.896839223,0.924359089,0.952723413
3.55,0.897573796,0.925051604,0.953370601
3.56,0.898510749,0.925547873,0.953398573
3.57,0.899234851,0.926153401,0.953877757
3.58,0.899764858,0.926872354,0.954796526
3.59,0.900419737,0.927417274,0.955224287
3.6,0.900909314,0.927733881,0.95535715
3.61,0.901464533,0.928407464,0.956155665
3.62,0.902273504,0.92913496,0.956796105
3.63,0.902689057,0.929320325,0.956737272
3.64,0.903490519,0.929971324,0.957228267
3.65,0.904182892,0.930766559,0.958131806
3.66,0.904647925,0.931179241,0.958488661
3.67,0.904921468,0.93166447,0.959197805
3.68,0.905470617,0.931894409,0.95908931
3.69,0.905770094,0.932515996,0.960051661
3.7,0.906719413,0.933159708,0.960371013
3.71,0.906758731,0.933253195,0.960521798
3.72,0.908189696,0.934148121,0.960848506
3.73,0.908722973,0.934901121,0.9618334
3.74,0.909104152,0.935102336,0.961844005
3.75,0.909842231,0.935751937,0.962399477
3.76,0.910698978,0.936351106,0.962725791
3.77,0.910473517,0.936393698,0.963051797
3.78,0.910672499,0.936986869,0.964061607
3.79,0.911495639,0.937390749,0.964021525
3.8,0.911900912,0.937852717,0.964543084
3.81,0.912327687,0.938183439,0.964771953
3.82,0.913291197,0.938737342,0.964892467
3.83,0.913935051,0.93935967,0.965491573
3.84,0.913823611,0.939488844,0.965874899
3.85,0.914718167,0.940184647,0.966360135
3.86,0.915097925,0.940434953,0.966473506
3.87,0.916042742,0.941189642,0.967026867
3.88,0.915927447,0.941327049,0.967431008
3.89,0.916682552,0.941937889,0.96788903
3.9,0.916945886,0.942287725,0.968329943
3.91,0.917596179,0.942797045,0.968690028
3.92,0.917660743,0.94287719,0.968786561
3.93,0.918186098,0.943328092,0.969158531
3.94,0.918768413,0.943808152,0.969530315
3.95,0.919482808,0.944355187,0.969900373
3.96,0.919720342,0.944665207,0.970286632
3.97,0.919996439,0.944933165,0.970545807
3.98,0.920585468,0.945476796,0.971041152
3.99,0.920928723,0.945638236,0.971010733
4,0.921289793,0.946148618,0.971678198
4.01,0.922055303,0.946676176,0.971954479
4.02,0.922433617,0.94696157,0.972141733
4.03,0.922772775,0.947397182,0.972678696
4.04,0.923252015,0.947537774,0.972462359
4.05,0.923692345,0.947952006,0.972848818
4.06,0.923544854,0.948199892,0.973513123
4.07,0.924373295,0.948658996,0.973582745
4.08,0.924567031,0.949068112,0.974218473
4.09,0.925167003,0.949569214,0.974615058
4.1,0.925715803,0.949736461,0.974380411
4.11,0.926043006,0.950221418,0.975031113
4.12,0.92658714,0.950625301,0.975287077
4.13,0.926654299,0.950662286,0.975292277
4.14,0.926613845,0.950928535,0.975881251
4.15,0.927412752,0.951388431,0.975983935
4.16,0.927768067,0.951728949,0.976308654
4.17,0.928297611,0.952025087,0.976359041
4.18,0.928309056,0.952289797,0.976890025
4.19,0.929458028,0.952966599,0.977069767
4.2,0.929251829,0.953119413,0.977600029
4.21,0.929664101,0.953351906,0.977643276
4.22,0.930182071,0.953787744,0.97799247
4.23,0.930570019,0.954076282,0.978176315
4.24,0.930746416,0.954136806,0.978115014
4.25,0.930866942,0.954506287,0.978745954
4.26,0.931448454,0.954935776,0.979015352
4.27,0.931927175,0.955221826,0.979098756
4.28,0.9323851,0.955483254,0.979153622
4.29,0.932473106,0.955763666,0.979635958
4.3,0.932923179,0.95609256,0.979837359
4.31,0.93317378,0.956230147,0.97985618
4.32,0.933438001,0.956670093,0.980480403
4.33,0.93383049,0.956863446,0.98046451
4.34,0.934148352,0.957317899,0.981062118
4.35,0.934738659,0.957597405,0.981015155
4.36,0.934171951,0.957465725,0.981340334
4.37,0.934851004,0.957903203,0.981523839
4.38,0.93553155,0.958306189,0.981635255
4.39,0.936224561,0.958694776,0.981704295
4.4,0.936090615,0.958891479,0.982247715
4.41,0.935972464,0.958977774,0.982548532
4.42,0.936350422,0.959249489,0.982708567
4.43,0.93687167,0.959460731,0.982594439
4.44,0.93728873,0.959904264,0.983065482
4.45,0.93750631,0.960090241,0.983218205
4.46,0.937933737,0.96026975,0.983137673
4.47,0.937824053,0.960402558,0.983524649
4.48,0.938229023,0.960882961,0.984083888
4.49,0.938626119,0.960962949,0.983831336
4.5,0.939145602,0.961295482,0.98396777
4.51,0.939048977,0.961506712,0.984501534
4.52,0.939560322,0.961742389,0.984448153
4.53,0.939921,0.962046962,0.984693776
4.54,0.940065947,0.962270437,0.9849994
4.55,0.94039436,0.962378904,0.984877401
4.56,0.940213834,0.962526187,0.985368038
4.57,0.941165699,0.962984343,0.9853088
4.58,0.941273513,0.963143468,0.98552156
4.59,0.941680463,0.96351091,0.98584744
4.6,0.941574284,0.963480969,0.985897335
4.61,0.942071772,0.963835426,0.986101862
4.62,0.942312401,0.964054461,0.986298178
4.63,0.94252088,0.964184539,0.986346134
4.64,0.942964977,0.964499964,0.986526756
4.65,0.942910319,0.964617806,0.986825038
4.66,0.943554138,0.965054134,0.987044032
4.67,0.943450305,0.964989275,0.98701998
4.68,0.944052741,0.965381989,0.987193134
4.69,0.944462242,0.965664179,0.987342072
4.7,0.944526625,0.965778096,0.987507716
4.71,0.944266405,0.965718329,0.987657599
4.72,0.944772703,0.96618751,0.98808772
4.73,0.945174798,0.966323346,0.987945098
4.74,0.945506219,0.966609992,0.988184802
4.75,0.945859088,0.966807836,0.988220554
4.76,0.945878234,0.967048505,0.988692601
4.77,0.946511605,0.967251083,0.988444995
