flow depth [m],16th percentile vulnerability,median vulnerability,84th percentile vulnerability
0.000001,0.003566644,0.003682138,0.003801371
0.01,0.003539519,0.003711008,0.003890805
0.02,0.003499008,0.003749346,0.004017596
0.03,0.003466629,0.003796404,0.00415755
0.04,0.00343501,0.003848045,0.004310743
0.05,0.003420497,0.003905799,0.004459955
0.06,0.00339932,0.003970982,0.004638781
0.07,0.003391309,0.004050805,0.004838552
0.08,0.003386652,0.004133892,0.005046005
0.09,0.003386825,0.004231861,0.00528774
0.1,0.003389196,0.004332536,0.005538441
0.11,0.003410071,0.004455213,0.005820678
0.12,0.003444745,0.004586267,0.006106068
0.13,0.003475804,0.004737985,0.006458505
0.14,0.003530285,0.004908903,0.006825887
0.15,0.00358593,0.005089517,0.007223562
0.16,0.003642323,0.005300731,0.007714237
0.17,0.00372922,0.005538856,0.008226634
0.18,0.003827848,0.005788865,0.008754515
0.19,0.003945922,0.006078878,0.009364799
0.2,0.004064378,0.00640098,0.010080891
0.21,0.004221558,0.00675563,0.010810827
0.22,0.004401046,0.007166698,0.011670309
0.23,0.004602118,0.00762052,0.012618606
0.24,0.004836893,0.008114517,0.013613158
0.25,0.005106275,0.008679451,0.014753
0.26,0.005403033,0.009314267,0.016056827
0.27,0.005763021,0.010033673,0.017469067
0.28,0.006137921,0.010800417,0.019004642
0.29,0.006612944,0.011719677,0.020769996
0.3,0.007105122,0.012679049,0.02262569
0.31,0.007710916,0.013809452,0.024731297
0.32,0.008364277,0.015026213,0.026994212
0.33,0.009144389,0.016424244,0.029499598
0.34,0.00997345,0.017946811,0.032294546
0.35,0.010938639,0.019645519,0.035282854
0.36,0.012053904,0.021542799,0.038501401
0.37,0.01326125,0.023637103,0.042131222
0.38,0.014623377,0.025897059,0.045862026
0.39,0.016150517,0.028414469,0.049991094
0.4,0.017836488,0.031226274,0.054667723
0.41,0.019702618,0.034145842,0.05917683
0.42,0.021686897,0.037310046,0.064188045
0.43,0.023962075,0.040846505,0.069628235
0.44,0.02634611,0.044354957,0.074673727
0.45,0.02889058,0.04817908,0.080345351
0.46,0.031580545,0.052221272,0.086352571
0.47,0.034589323,0.056520925,0.092358414
0.48,0.037518542,0.060831478,0.098630398
0.49,0.040766428,0.065331741,0.104699789
0.5,0.044310393,0.069941881,0.110399986
0.51,0.047757231,0.074753903,0.117011514
0.52,0.051221914,0.079357738,0.122948363
0.53,0.055166881,0.084435057,0.129231138
0.54,0.058888768,0.089096135,0.134798564
0.55,0.063170351,0.094242264,0.14059767
0.56,0.066870958,0.098723771,0.145749114
0.57,0.07086551,0.103498668,0.151159206
0.58,0.075164806,0.1083906,0.1563035
0.59,0.079231993,0.113056287,0.16132024
0.6,0.083612562,0.117803561,0.165976005
0.61,0.087960908,0.122432625,0.170413745
0.62,0.092393147,0.127218429,0.175170228
0.63,0.096438115,0.131463426,0.179209563
0.64,0.100854929,0.135991326,0.183368735
0.65,0.105329171,0.140394216,0.187132736
0.66,0.109350103,0.144800236,0.191742922
0.67,0.113774469,0.149093103,0.195375585
0.68,0.118094355,0.153288751,0.198971757
0.69,0.122263377,0.157325733,0.202443175
0.7,0.126603116,0.161395303,0.205748837
0.71,0.130691866,0.165510362,0.209605089
0.72,0.1349028,0.169376846,0.212660641
0.73,0.139072948,0.173164297,0.215612556
0.74,0.142897209,0.176819051,0.218793475
0.75,0.147110656,0.180543618,0.221574691
0.76,0.150790212,0.18419561,0.225001493
0.77,0.154885296,0.187852047,0.227835645
0.78,0.158262395,0.191101004,0.230753451
0.79,0.162239378,0.194518338,0.233219483
0.8,0.165520317,0.197633569,0.23597724
0.81,0.169344403,0.200976066,0.238516174
0.82,0.172689787,0.204191584,0.241439889
0.83,0.1765546,0.207503553,0.24387767
0.84,0.179834001,0.210431004,0.246233789
0.85,0.183111685,0.213397163,0.248691661
0.86,0.186476813,0.216377266,0.251072079
0.87,0.189465223,0.219223561,0.253655889
0.88,0.192250262,0.221854348,0.256017086
0.89,0.195539488,0.224661434,0.258120547
0.9,0.198139631,0.227353752,0.260875263
0.91,0.201512079,0.230524412,0.263713742
0.92,0.204412126,0.233141333,0.265908302
0.93,0.206809926,0.235665233,0.268546597
0.94,0.210126564,0.238462552,0.270619704
0.95,0.212810656,0.241206628,0.27339156
0.96,0.21520792,0.24371194,0.275991281
0.97,0.218012629,0.246399294,0.278482088
0.98,0.220584026,0.248860095,0.280760796
0.99,0.223178812,0.251556817,0.28354319
1,0.225687631,0.254008688,0.285883692
1.01,0.228782903,0.25702302,0.288748992
1.02,0.231110301,0.259356597,0.291055155
1.03,0.233496794,0.261841092,0.293626118
1.04,0.236048172,0.264546602,0.296485689
1.05,0.238435558,0.267127699,0.299272508
1.06,0.240959708,0.269752598,0.301986024
1.07,0.243285059,0.272341361,0.30486795
1.08,0.246178589,0.275196256,0.307634304
1.09,0.248650429,0.277924471,0.310644996
1.1,0.251085202,0.280695277,0.313797221
1.11,0.253837119,0.283548674,0.316737958
1.12,0.256209213,0.286052915,0.319372864
1.13,0.259147891,0.289201958,0.322741474
1.14,0.261799464,0.291958618,0.32559209
1.15,0.264056653,0.294438047,0.328315013
1.16,0.267065768,0.297995371,0.332507015
1.17,0.269989262,0.300785394,0.335094265
1.18,0.27250206,0.303784789,0.338658718
1.19,0.275331942,0.306656376,0.341544582
1.2,0.277798825,0.309576484,0.344989217
1.21,0.280908822,0.313002651,0.348763198
1.22,0.283771067,0.315968435,0.351818997
1.23,0.286689394,0.319468599,0.355995679
1.24,0.289558875,0.322616896,0.359449046
1.25,0.292529264,0.325878719,0.363030138
1.26,0.296041564,0.329281168,0.366252922
1.27,0.2986461,0.332341318,0.369838252
1.28,0.302433521,0.336317448,0.373997649
1.29,0.305421376,0.339440771,0.377249421
1.3,0.308655136,0.343333886,0.381908945
1.31,0.312038451,0.346518028,0.384807524
1.32,0.315590103,0.350390501,0.38902837
1.33,0.318944652,0.354043928,0.393005815
1.34,0.322728368,0.358026137,0.397184529
1.35,0.325895846,0.361447559,0.400877579
1.36,0.329622858,0.365266126,0.404763624
1.37,0.333655926,0.369304695,0.408762282
1.38,0.337036532,0.373500283,0.413909023
1.39,0.340500669,0.377167615,0.417783056
1.4,0.344445204,0.381053729,0.421553103
1.41,0.348703082,0.385394538,0.425946764
1.42,0.352589468,0.389679649,0.430671481
1.43,0.356598108,0.393680973,0.434620108
1.44,0.360798307,0.398125832,0.439315195
1.45,0.364257043,0.40199497,0.44364264
1.46,0.36852148,0.406567219,0.448540756
1.47,0.372925791,0.41129433,0.453610423
1.48,0.377121505,0.415234487,0.457199276
1.49,0.38124679,0.419609332,0.461832063
1.5,0.386023515,0.424752933,0.467368041
1.51,0.390149277,0.429153082,0.472056157
1.52,0.394784658,0.433868949,0.476822646
1.53,0.398877904,0.437775254,0.480465754
1.54,0.402782264,0.442467761,0.486063407
1.55,0.407992876,0.447764814,0.491413799
1.56,0.412503981,0.452199027,0.495713908
1.57,0.417250845,0.456988789,0.500511276
1.58,0.421141764,0.461487169,0.505697667
1.59,0.426256902,0.466835531,0.511277148
1.6,0.430957298,0.471719793,0.516337846
1.61,0.436040943,0.476767564,0.521298088
1.62,0.440362325,0.48123865,0.525909291
1.63,0.445686284,0.48631007,0.530636668
1.64,0.449781157,0.490892391,0.535761305
1.65,0.455091604,0.496980259,0.542724531
1.66,0.459739965,0.501235977,0.546477409
1.67,0.46477605,0.506556422,0.55209258
1.68,0.469303217,0.511601408,0.557711926
1.69,0.474498548,0.516628622,0.562499367
1.7,0.479684335,0.521885349,0.567799067
1.71,0.48440963,0.5268152,0.572932984
1.72,0.488445616,0.531626654,0.578625112
1.73,0.493953483,0.536949344,0.583687752
1.74,0.498907473,0.541917377,0.588635086
1.75,0.504250601,0.54717877,0.593761526
1.76,0.508994401,0.552502119,0.599728781
1.77,0.513684767,0.557497445,0.605046949
1.78,0.518441869,0.562047774,0.609321351
1.79,0.523640006,0.567420165,0.614860667
1.8,0.528421396,0.572317126,0.619859255
1.81,0.533434751,0.577489872,0.625183402
1.82,0.538591383,0.582692887,0.630405557
1.83,0.543619204,0.587666829,0.635283483
1.84,0.548593223,0.592635945,0.64021455
1.85,0.553066166,0.597504334,0.645513052
1.86,0.557956466,0.602303532,0.650175358
1.87,0.562678519,0.607372127,0.655615753
1.88,0.566806014,0.612194457,0.661217495
1.89,0.571962281,0.616849126,0.665258633
1.9,0.576651515,0.621738356,0.670350417
1.91,0.581284485,0.626165672,0.674512151
1.92,0.586614913,0.631202259,0.679178594
1.93,0.591124992,0.635767998,0.683782537
1.94,0.595529852,0.640288439,0.688410975
1.95,0.599983548,0.644720608,0.692793434
1.96,0.604467291,0.649225964,0.697298859
1.97,0.610306523,0.654570784,0.70204544
1.98,0.61441155,0.658526408,0.70580872
1.99,0.618632831,0.663001761,0.710552871
2,0.622928346,0.667226075,0.714673907
2.01,0.62769558,0.671540532,0.718448084
2.02,0.631897558,0.676148772,0.723498859
2.03,0.636616294,0.680491245,0.727390013
2.04,0.640966837,0.68465483,0.731320576
2.05,0.645457544,0.688641181,0.734713972
2.06,0.649853842,0.692766763,0.738513426
2.07,0.653744984,0.696897762,0.742898994
2.08,0.658027425,0.700761624,0.746271106
2.09,0.661636003,0.704441095,0.750015498
2.1,0.6663536,0.708540896,0.753399098
2.11,0.669725327,0.712172922,0.757310872
2.12,0.674166422,0.715975404,0.760377204
2.13,0.677879317,0.719907287,0.764540956
2.14,0.681963553,0.723659374,0.767904513
2.15,0.685679235,0.727292682,0.771431623
2.16,0.690265403,0.730912999,0.773954206
2.17,0.6939432,0.734556125,0.777545916
2.18,0.698216447,0.738147085,0.780361336
2.19,0.701138124,0.741289494,0.783740171
2.2,0.705434897,0.745002175,0.786788749
2.21,0.708408692,0.747860459,0.789509322
2.22,0.712588817,0.751293889,0.792101271
2.23,0.71551248,0.754315658,0.795223183
2.24,0.71935162,0.758062848,0.798857284
2.25,0.722736932,0.760821712,0.800913378
2.26,0.72643491,0.76394176,0.80338514
2.27,0.729600504,0.767144713,0.806620894
2.28,0.732674553,0.77017213,0.809588797
2.29,0.736384288,0.772993734,0.811423223
2.3,0.73949339,0.776190262,0.814708191
2.31,0.742401908,0.778706376,0.816786183
2.32,0.745255103,0.781647576,0.819817174
2.33,0.748913577,0.784676572,0.822147362
2.34,0.751660697,0.787434161,0.824910175
2.35,0.755175306,0.790272262,0.827000357
2.36,0.757658704,0.792548502,0.829044958
2.37,0.761140473,0.79532876,0.831052689
2.38,0.76415385,0.798065921,0.833482961
2.39,0.765788804,0.800048951,0.835841841
2.4,0.769304026,0.803090496,0.838360808
2.41,0.771433534,0.805139078,0.840317288
2.42,0.774399487,0.807882842,0.842813945
2.43,0.777368362,0.810461216,0.844962844
2.44,0.779628549,0.812711304,0.847197893
2.45,0.782128663,0.814973419,0.84919746
2.46,0.785400893,0.817517693,0.85094782
2.47,0.787416587,0.819459396,0.852806142
2.48,0.789636321,0.821796908,0.855267343
2.49,0.792071015,0.823986141,0.857187231
2.5,0.794316518,0.826163346,0.859287019
2.51,0.796648255,0.828519745,0.861666317
2.52,0.798951593,0.830476,0.863244272
2.53,0.801358438,0.832513094,0.864878958
2.54,0.803846283,0.834824537,0.866996617
2.55,0.80554637,0.836752643,0.869167825
2.56,0.808187705,0.838843619,0.870662364
2.57,0.810369658,0.841319416,0.873451211
2.58,0.812649181,0.843013581,0.874512537
2.59,0.81462306,0.84514653,0.876813698
2.6,0.816348193,0.846706253,0.878193257
2.61,0.818229129,0.848615541,0.880130406
2.62,0.82033456,0.850400778,0.881568957
2.63,0.822012031,0.852098939,0.883287075
2.64,0.824279061,0.854276277,0.885365154
2.65,0.826184793,0.855885433,0.886653787
2.66,0.82790539,0.857721119,0.888610615
2.67,0.828930613,0.858874873,0.889900839
2.68,0.831417652,0.861216186,0.892082718
2.69,0.833418517,0.862781748,0.893179512
2.7,0.834358443,0.864322875,0.895363424
2.71,0.836423747,0.86597567,0.896571701
2.72,0.838019786,0.867795821,0.89862984
2.73,0.840133618,0.8696618,0.900227808
2.74,0.841778884,0.871091886,0.901425644
2.75,0.843411154,0.872904165,0.903428508
2.76,0.84478837,0.874272854,0.904786394
2.77,0.846307497,0.875708445,0.906130791
2.78,0.848367682,0.877598684,0.907836858
2.79,0.849250333,0.878811543,0.909401737
2.8,0.851224316,0.880557489,0.910901483
2.81,0.8521406,0.88169817,0.912280981
2.82,0.853937714,0.883239126,0.913545967
2.83,0.855732891,0.884869599,0.914998378
2.84,0.857487984,0.886384423,0.916254641
2.85,0.858276719,0.887607743,0.917941134
2.86,0.860093659,0.889126845,0.91914007
2.87,0.861483411,0.890536431,0.920569247
2.88,0.862682847,0.891864183,0.922032615
2.89,0.863625815,0.892978007,0.923327797
2.9,0.865197991,0.894339204,0.924461939
2.91,0.866424769,0.89549478,0.925540139
2.92,0.868043187,0.8970076,0.926938482
2.93,0.869102648,0.898181725,0.928233751
2.94,0.870355938,0.899326729,0.929261846
2.95,0.872005854,0.901005029,0.930968593
2.96,0.8730124,0.902041662,0.932036199
2.97,0.874395101,0.903273158,0.933104951
2.98,0.875769472,0.90451124,0.93419628
2.99,0.877165286,0.90605528,0.935896784
3,0.877806828,0.906889003,0.936934685
3.01,0.879257959,0.9081546,0.938000922
3.02,0.880429618,0.909206208,0.938923351
3.03,0.881812698,0.910423071,0.939961706
3.04,0.882422341,0.911182299,0.940879604
3.05,0.883627257,0.912587594,0.942497089
3.06,0.884884493,0.913714669,0.943484153
3.07,0.885624248,0.914490215,0.944297036
3.08,0.887083744,0.915934369,0.945723303
3.09,0.888126083,0.916941499,0.946691836
3.1,0.889404199,0.9179717,0.947456784
3.11,0.890702274,0.919242259,0.948696725
3.12,0.891536673,0.920072891,0.949522493
3.13,0.892471002,0.921038175,0.950519757
3.14,0.893450665,0.921945496,0.951349112
3.15,0.894753278,0.923153741,0.952455665
3.16,0.895516859,0.92383802,0.953054851
3.17,0.895935539,0.924608223,0.954198521
3.18,0.897630706,0.925936356,0.955134588
3.19,0.898498121,0.926798678,0.955990635
3.2,0.899676399,0.927885538,0.956979168
3.21,0.900440014,0.928581011,0.957601485
3.22,0.901304569,0.929498242,0.958573841
3.23,0.902441385,0.930472394,0.959374082
3.24,0.903218072,0.931307425,0.960270334
3.25,0.904298373,0.932187601,0.960936953
3.26,0.905438887,0.933241878,0.961898606
3.27,0.90584007,0.933747451,0.962514611
3.28,0.906642044,0.934607487,0.963435527
3.29,0.907934277,0.935548639,0.964002877
3.3,0.908638876,0.93632586,0.964856489
3.31,0.909834003,0.937401072,0.965803395
3.32,0.910325554,0.938004765,0.966525585
3.33,0.911527804,0.938894733,0.967083303
3.34,0.912026609,0.939566629,0.967938261
3.35,0.913172392,0.940547329,0.968742907
3.36,0.913994359,0.941195395,0.96920595
3.37,0.914694431,0.941763883,0.969634428
3.38,0.915497556,0.942607145,0.970519499
3.39,0.915836805,0.943084958,0.971143803
3.4,0.916867411,0.943961729,0.971856711
3.41,0.917676112,0.94463808,0.97239221
3.42,0.918389789,0.945304067,0.973007093
3.43,0.919202177,0.946052814,0.973687781
3.44,0.920424488,0.946956493,0.974253305
3.45,0.920709353,0.947420786,0.974907166
3.46,0.92156279,0.948214299,0.975636567
3.47,0.922152877,0.948768424,0.97615216
3.48,0.923170736,0.94945313,0.976483776
3.49,0.924385895,0.950335461,0.97701349
3.5,0.924509371,0.950592179,0.97741085
3.51,0.925325634,0.951358256,0.978123266
3.52,0.926281453,0.952067253,0.978570877
3.53,0.92708441,0.95278922,0.979206735
3.54,0.927386828,0.9532042,0.979740298
3.55,0.928083974,0.953606617,0.979831142
3.56,0.928615612,0.954261533,0.980615728
3.57,0.929107001,0.954882042,0.981372127
3.58,0.929925122,0.95539331,0.981559004
3.59,0.930413202,0.955747219,0.98177105
3.6,0.931399894,0.956611926,0.982506421
3.61,0.932453655,0.957428217,0.983071691
3.62,0.932433698,0.957538703,0.983319641
3.63,0.933261987,0.958216247,0.983837752
3.64,0.933757992,0.958621202,0.984146445
3.65,0.934243792,0.959225407,0.984875028
3.66,0.934987812,0.959760078,0.985188679
3.67,0.935630104,0.960169656,0.985352826
3.68,0.935782577,0.960613297,0.986102893
3.69,0.93707119,0.961334385,0.986225816
3.7,0.937194496,0.961565539,0.986570334
3.71,0.937891773,0.962108412,0.986950331
3.72,0.938529854,0.962559235,0.987203845
3.73,0.939007908,0.96298531,0.98757497
3.74,0.939825854,0.963589048,0.987953087
3.75,0.940079779,0.963927315,0.988379804
3.76,0.940483866,0.964317928,0.988756
3.77,0.941411247,0.964929362,0.989035
3.78,0.942055645,0.96535014,0.989220644
3.79,0.942404886,0.965815651,0.989807976
3.8,0.942430342,0.966097888,0.990359804
3.81,0.943359655,0.966635729,0.990486108
3.82,0.943634182,0.96679322,0.990520636
3.83,0.94446641,0.967457833,0.991008944
3.84,0.944851201,0.967878549,0.991467107
3.85,0.94534292,0.968094857,0.991394374
3.86,0.94605178,0.968570174,0.991624563
3.87,0.946571711,0.969102056,0.99216867
3.88,0.946732013,0.969256668,0.992317229
3.89,0.947360482,0.969687559,0.992540832
3.9,0.947926036,0.970131235,0.992856591
3.91,0.948293666,0.970449285,0.99312254
3.92,0.948374801,0.970648624,0.993445578
3.93,0.949060155,0.971106395,0.99366476
3.94,0.949369551,0.971416017,0.993974451
3.95,0.95017597,0.971817029,0.993950981
3.96,0.950529647,0.972086976,0.994133209
3.97,0.950789013,0.972394406,0.994490752
3.98,0.951363046,0.972832608,0.994786677
3.99,0.95172304,0.973037933,0.994830196
4,0.952101683,0.973398602,0.995171897
4.01,0.952738987,0.973745907,0.995216008
4.02,0.952989139,0.974124064,0.995727709
4.03,0.953625919,0.974380478,0.995586735
4.04,0.953494999,0.974554416,0.996078962
4.05,0.954172228,0.974929093,0.996137499
4.06,0.95477993,0.975243203,0.996145054
4.07,0.95513754,0.975591474,0.996483422
4.08,0.955415493,0.975842319,0.996705871
4.09,0.955833796,0.976137335,0.996872156
4.1,0.956153352,0.976410384,0.99709658
4.11,0.956472006,0.976638521,0.997230232
4.12,0.956944807,0.97701111,0.997498186
4.13,0.957242067,0.97724104,0.997657836
4.14,0.95767016,0.977428621,0.997594735
4.15,0.957788566,0.977606801,0.997835108
4.16,0.958164962,0.977949827,0.998143223
4.17,0.958575109,0.978244675,0.998317852
4.18,0.959189866,0.978521271,0.998242278
4.19,0.959126605,0.978684302,0.998640803
4.2,0.959827617,0.97902754,0.99861153
4.21,0.960083922,0.979268202,0.99883582
4.22,0.960049027,0.979330702,0.998999632
4.23,0.960833853,0.979754005,0.999046721
4.24,0.960685284,0.97978088,0.99925604
4.25,0.960897272,0.97998341,0.999448652
4.26,0.961602181,0.980372062,0.99950832
4.27,0.96197693,0.980632944,0.999650762
4.28,0.962097303,0.980671166,0.999603608
4.29,0.962673484,0.981114925,0.99990964
4.3,0.962928378,0.98116906,0.999755273
4.31,0.963394068,0.981526691,1.000000599
4.32,0.963550921,0.981674251,1.00013846
4.33,0.963239241,0.981677822,1.000469359
4.34,0.963902527,0.981999146,1.000435516
4.35,0.964460251,0.982276672,1.000422214
4.36,0.96435581,0.982328811,1.000636781
4.37,0.964907846,0.982665088,1.000749118
4.38,0.965151055,0.982872156,1.000918633
4.39,0.965521846,0.983040629,1.000877281
4.4,0.965680057,0.983151314,1.000938664
4.41,0.966185107,0.983414974,1.000952099
4.42,0.966300268,0.983579759,1.001168244
4.43,0.966503718,0.983718696,1.0012403
4.44,0.96645014,0.983794162,1.001449443
4.45,0.966789836,0.983934357,1.00138291
4.46,0.967133832,0.984185012,1.001536815
4.47,0.967586861,0.984409143,1.001523895
4.48,0.967614213,0.984511059,1.001702963
4.49,0.96793995,0.984693797,1.001737632
4.5,0.968263436,0.984910809,1.001844401
4.51,0.968407449,0.985101433,1.002083198
4.52,0.969024659,0.985313232,1.001875604
4.53,0.968948826,0.985322858,1.001973592
4.54,0.969348655,0.985501395,1.001923296
4.55,0.969575901,0.98568699,1.00206579
4.56,0.969586449,0.985801697,1.002288127
4.57,0.969993951,0.985944119,1.002156565
4.58,0.970064907,0.986051676,1.00230191
4.59,0.970285382,0.986190615,1.002356573
4.6,0.970683683,0.986464442,1.002501755
4.61,0.971024254,0.986668676,1.002565149
4.62,0.970997256,0.986685871,1.00262797
4.63,0.971038173,0.986790235,1.002797826
4.64,0.970987514,0.986796105,1.002862075
4.65,0.971543599,0.987031821,1.002766955
4.66,0.971898832,0.987225234,1.002793326
4.67,0.971939081,0.987326931,1.002958403
4.68,0.972222031,0.987407498,1.002830151
4.69,0.972177052,0.987575175,1.003217186
4.7,0.972699305,0.987690801,1.002913349
4.71,0.973066015,0.987930159,1.003021362
4.72,0.973147259,0.987957348,1.002992828
4.73,0.973083548,0.988037373,1.003221
4.74,0.973307091,0.988195234,1.003311113
4.75,0.973553316,0.988279697,1.003228835
4.76,0.973953904,0.988488927,1.003240867
4.77,0.974166334,0.9886487,1.003346366
4.78,0.97428761,0.988723918,1.003374133
