flow depth [m],16th percentile vulnerability,median vulnerability,84th percentile vulnerability
0.000001,0.193934953,0.199257127,0.204725358
0.01,0.207211585,0.216900941,0.227043377
0.02,0.213740606,0.225281598,0.237445749
0.03,0.219195031,0.232423022,0.246449296
0.04,0.223770184,0.237967874,0.253066374
0.05,0.228275103,0.243346501,0.259412956
0.06,0.23277883,0.248742253,0.265800411
0.07,0.236694082,0.2533411,0.271158926
0.08,0.240665434,0.25796022,0.27649785
0.09,0.243915132,0.261940567,0.281298089
0.1,0.24769225,0.266019135,0.285702037
0.11,0.250969597,0.269766654,0.289971568
0.12,0.254482646,0.273798513,0.294580502
0.13,0.258151617,0.27735233,0.297981147
0.14,0.260435098,0.280432367,0.301965108
0.15,0.263983388,0.284488253,0.306585829
0.16,0.266946278,0.287898939,0.310496179
0.17,0.269606449,0.290581125,0.313187576
0.18,0.272826222,0.294008723,0.316835856
0.19,0.2760729,0.297466077,0.320517034
0.2,0.278711984,0.300604583,0.324216829
0.21,0.281376723,0.303435072,0.32722267
0.22,0.284069236,0.305998422,0.329620467
0.23,0.286784829,0.309185734,0.333336384
0.24,0.289982242,0.312092983,0.335889636
0.25,0.292463084,0.315201154,0.339707035
0.26,0.293788213,0.316919592,0.341872217
0.27,0.297291995,0.320227095,0.344931561
0.28,0.299985316,0.323612815,0.349101269
0.29,0.303126675,0.325934709,0.350458878
0.3,0.304745861,0.328241626,0.353548904
0.31,0.307267674,0.330473046,0.355430926
0.32,0.310387303,0.333789129,0.35895535
0.33,0.312205536,0.336124573,0.361876122
0.34,0.314745861,0.338175446,0.363349121
0.35,0.317373724,0.340810904,0.365978855
0.36,0.318853093,0.343394029,0.369823788
0.37,0.321790197,0.345858866,0.371727779
0.38,0.32310728,0.347534993,0.373809502
0.39,0.326601708,0.35086451,0.376929764
0.4,0.328560101,0.352679008,0.378568433
0.41,0.330874298,0.355347462,0.381630788
0.42,0.333252715,0.357817614,0.384193253
0.43,0.335594299,0.360186424,0.386580644
0.44,0.338067255,0.362700088,0.389127759
0.45,0.339368998,0.363986745,0.390390258
0.46,0.342164821,0.366577743,0.392732488
0.47,0.343231053,0.368279856,0.395156707
0.48,0.345764117,0.37120838,0.398525049
0.49,0.348056573,0.372719872,0.399130812
0.5,0.349952329,0.375077021,0.40200553
0.51,0.353072591,0.377822098,0.404306483
0.52,0.354962661,0.37977599,0.406323872
0.53,0.357013403,0.381826518,0.408364191
0.54,0.358470045,0.38339864,0.41006081
0.55,0.361175462,0.386217274,0.41299534
0.56,0.362953597,0.387650583,0.414028062
0.57,0.364044173,0.389430149,0.41658637
0.58,0.366940588,0.391972504,0.418712044
0.59,0.369147542,0.393903111,0.420318824
0.6,0.370743668,0.395227096,0.421327377
0.61,0.373086958,0.398271693,0.425156489
0.62,0.374335688,0.399336342,0.426006708
0.63,0.376771503,0.40183626,0.428568451
0.64,0.379103846,0.403864242,0.430241813
0.65,0.380291333,0.405413048,0.432194283
0.66,0.381494853,0.406793259,0.4337693
0.67,0.384678045,0.409616027,0.436170694
0.68,0.386400214,0.411323842,0.437855096
0.69,0.387255323,0.412948427,0.440346183
0.7,0.390057065,0.414914114,0.441355221
0.71,0.391806688,0.416851197,0.443496565
0.72,0.393984561,0.418858551,0.445302946
0.73,0.395407124,0.420420396,0.447015995
0.74,0.397736059,0.422457649,0.448715827
0.75,0.398752669,0.423534485,0.449856449
0.76,0.400750774,0.425433759,0.451637016
0.77,0.402253178,0.427466264,0.454259697
0.78,0.403613548,0.428434163,0.454781146
0.79,0.406060011,0.431155961,0.457802929
0.8,0.408148375,0.433164976,0.459714917
0.81,0.409827932,0.434445011,0.46054076
0.82,0.411364905,0.436190834,0.462515011
0.83,0.413451372,0.438017036,0.464042295
0.84,0.414547798,0.43921391,0.465347686
0.85,0.417141064,0.441486082,0.467251913
0.86,0.418437165,0.442858953,0.468706101
0.87,0.419078727,0.444301436,0.471042202
0.88,0.422153715,0.445873312,0.470925644
0.89,0.423434263,0.448052897,0.474102869
0.9,0.42616779,0.450449352,0.476114393
0.91,0.426899826,0.451290147,0.477073974
0.92,0.429081637,0.452745059,0.477713495
0.93,0.429820404,0.454537944,0.480676907
0.94,0.431898483,0.456305961,0.482092755
0.95,0.433128005,0.457930343,0.484152945
0.96,0.434689032,0.459233624,0.48516412
0.97,0.436057984,0.460314581,0.4859205
0.98,0.437969028,0.462074582,0.487506892
0.99,0.440210869,0.464237979,0.48957651
1,0.441578099,0.46571662,0.491174654
1.01,0.442564503,0.467020584,0.492828107
1.02,0.443880995,0.469115761,0.495785131
1.03,0.44612236,0.470248955,0.495680332
1.04,0.447731579,0.472141747,0.497882749
1.05,0.44890309,0.473101974,0.498605341
1.06,0.450654808,0.474628112,0.499876714
1.07,0.451478103,0.475874584,0.501589375
1.08,0.453195196,0.477930103,0.504015016
1.09,0.455549356,0.47963415,0.504992301
1.1,0.455785755,0.48010326,0.505718175
1.11,0.45944989,0.483111661,0.507992018
1.12,0.459763734,0.483871364,0.509243073
1.13,0.46022447,0.484751643,0.510585965
1.14,0.463431588,0.487616757,0.51306408
1.15,0.464647943,0.488746728,0.514095388
1.16,0.466315112,0.490124211,0.515148955
1.17,0.467383611,0.491527927,0.516919501
1.18,0.468571196,0.492575537,0.517809591
1.19,0.47002468,0.494336199,0.519905205
1.2,0.470878647,0.495469789,0.521345178
1.21,0.47317321,0.497284077,0.52262353
1.22,0.474614626,0.498283395,0.523132513
1.23,0.475656398,0.499525799,0.524593015
1.24,0.477615457,0.50131086,0.526181836
1.25,0.478851999,0.502348012,0.526996913
1.26,0.480386276,0.503821324,0.528399622
1.27,0.481252828,0.505234638,0.530411511
1.28,0.481843441,0.505891285,0.53113931
1.29,0.484901563,0.508577669,0.533409799
1.3,0.485917147,0.509508336,0.534244872
1.31,0.486321878,0.510341659,0.535547793
1.32,0.488255804,0.511540926,0.535936525
1.33,0.489282066,0.513310126,0.538518176
1.34,0.49151892,0.515103891,0.53982056
1.35,0.491637037,0.515528803,0.540581623
1.36,0.493762099,0.517454396,0.542283527
1.37,0.495150181,0.519213989,0.544447274
1.38,0.495160735,0.519205747,0.544418386
1.39,0.496770636,0.520836608,0.546068454
1.4,0.498221552,0.522042066,0.547001464
1.41,0.49947376,0.523439321,0.548554788
1.42,0.501089232,0.524764982,0.549559376
1.43,0.50228001,0.526200922,0.55126106
1.44,0.504705767,0.527889141,0.55213743
1.45,0.504728068,0.528440795,0.553267574
1.46,0.5061767,0.530168351,0.555297152
1.47,0.50862644,0.53209228,0.556640734
1.48,0.50919114,0.532663045,0.557216921
1.49,0.510021131,0.533800016,0.558687552
1.5,0.512142728,0.535372619,0.559656177
1.51,0.512699874,0.536698161,0.561819752
1.52,0.514363555,0.538067748,0.562864337
1.53,0.51593255,0.539416317,0.563968998
1.54,0.516127065,0.540038862,0.565058474
1.55,0.517857786,0.541307351,0.565818757
1.56,0.518923881,0.542398345,0.566934718
1.57,0.520190707,0.54372972,0.568333891
1.58,0.521422327,0.544885602,0.569404692
1.59,0.521958652,0.545757335,0.570641117
1.6,0.52390004,0.548118461,0.573456432
1.61,0.525139361,0.548414988,0.572722254
1.62,0.527342968,0.550650538,0.574988258
1.63,0.528174265,0.551890817,0.576672311
1.64,0.527632335,0.55131156,0.576053469
1.65,0.529855053,0.554051493,0.579352891
1.66,0.530202881,0.553866833,0.578586952
1.67,0.532044242,0.555218543,0.579402249
1.68,0.532929921,0.556567296,0.581253075
1.69,0.534241938,0.557992699,0.582799347
1.7,0.535700156,0.559495416,0.584347637
1.71,0.537208665,0.560306763,0.584397999
1.72,0.537957331,0.561465732,0.586001435
1.73,0.539243745,0.562690119,0.587155943
1.74,0.54016789,0.56399487,0.588872865
1.75,0.541369692,0.565042871,0.589751239
1.76,0.542114884,0.565838553,0.590600401
1.77,0.543164205,0.566829364,0.591525591
1.78,0.545422523,0.568639551,0.592844859
1.79,0.54575508,0.569860739,0.59503113
1.8,0.547301937,0.570782406,0.595270239
1.81,0.547960226,0.571750538,0.596573733
1.82,0.54773217,0.571834258,0.596996921
1.83,0.550041116,0.573457972,0.597871752
1.84,0.550573643,0.574139046,0.598713085
1.85,0.551247497,0.575592071,0.601011766
1.86,0.553145014,0.576800177,0.601466949
1.87,0.554324253,0.578303605,0.603320273
1.88,0.55506905,0.579082945,0.604135751
1.89,0.556346152,0.580340041,0.605368729
1.9,0.557505719,0.58164374,0.606826851
1.91,0.557976788,0.582388248,0.607867708
1.92,0.559114083,0.582911742,0.607722304
1.93,0.560972205,0.584763842,0.609564517
1.94,0.561381149,0.585700052,0.611072445
1.95,0.562714676,0.586741934,0.611795128
1.96,0.563181862,0.587285114,0.612419944
1.97,0.564086549,0.588369146,0.613697052
1.98,0.565786702,0.590022933,0.615297355
1.99,0.566017728,0.590796896,0.616660847
2,0.567221394,0.590964862,0.615702215
2.01,0.567822398,0.591840105,0.616873711
2.02,0.56823539,0.593085325,0.619021991
2.03,0.570154826,0.594492543,0.619869144
2.04,0.571257836,0.595612477,0.62100544
2.05,0.572121018,0.596484168,0.621884796
2.06,0.57343143,0.597767953,0.623137321
2.07,0.57426488,0.598622368,0.624012982
2.08,0.575423453,0.599711115,0.625023919
2.09,0.576700499,0.600714733,0.625728939
2.1,0.57672784,0.601150464,0.62660731
2.11,0.578509606,0.602616537,0.627728022
2.12,0.579593608,0.603950189,0.629330321
2.13,0.579855758,0.604721467,0.630653483
2.14,0.581133849,0.605994612,0.631918913
2.15,0.582079085,0.606124248,0.631162694
2.16,0.5827597,0.607818641,0.633955127
2.17,0.583993588,0.608673654,0.63439672
2.18,0.584579204,0.609274172,0.635012354
2.19,0.584771341,0.610051829,0.636425227
2.2,0.586245741,0.611281892,0.637387234
2.21,0.587514315,0.612097476,0.637709261
2.22,0.588685161,0.613553815,0.63947303
2.23,0.589503786,0.614582284,0.640727665
2.24,0.590317883,0.615184144,0.64109786
2.25,0.590513648,0.616303631,0.643219961
2.26,0.591924777,0.617178247,0.643509113
2.27,0.592956829,0.618048859,0.644202704
2.28,0.593607209,0.618670701,0.644792432
2.29,0.593836235,0.619335801,0.645930329
2.3,0.59510141,0.620374262,0.646720406
2.31,0.596240686,0.621344996,0.647506306
2.32,0.597847351,0.622427364,0.648017964
2.33,0.599147297,0.624037323,0.649961342
2.34,0.598970517,0.624613916,0.651355172
2.35,0.600385771,0.62632116,0.653376902
2.36,0.601449807,0.626932062,0.65349395
2.37,0.601918265,0.627903372,0.655010268
2.38,0.602390967,0.628024952,0.654749759
2.39,0.602978148,0.628314982,0.654716458
2.4,0.604157292,0.629765784,0.656459747
2.41,0.605076669,0.630905134,0.657836119
2.42,0.605567262,0.631523023,0.658591296
2.43,0.607178055,0.632493275,0.658863968
2.44,0.608055404,0.633298125,0.659588768
2.45,0.608062439,0.634298731,0.66166705
2.46,0.610483366,0.635411874,0.661358313
2.47,0.610273478,0.636205389,0.663239205
2.48,0.611620198,0.636696263,0.662800432
2.49,0.612285763,0.638117393,0.66503883
2.5,0.611821739,0.637554871,0.664370334
2.51,0.612634474,0.638614254,0.665695749
2.52,0.613770326,0.640205046,0.667778293
2.53,0.614980544,0.640904099,0.667920421
2.54,0.614648863,0.641543081,0.669614066
2.55,0.616912595,0.642878826,0.669937992
2.56,0.617698356,0.643992765,0.671406485
2.57,0.618737419,0.64527639,0.672953674
2.58,0.618609001,0.645387805,0.673325829
2.59,0.619430612,0.646008732,0.673727249
2.6,0.621489291,0.647570259,0.674745722
2.61,0.621735961,0.648037634,0.675451963
2.62,0.622179619,0.648459638,0.675849688
2.63,0.623348513,0.649881393,0.677543647
2.64,0.623037349,0.649648824,0.677396942
2.65,0.624868851,0.65152066,0.679309217
2.66,0.625123695,0.6517985,0.679611553
2.67,0.626539583,0.653006143,0.680590716
2.68,0.627082891,0.654110158,0.6823023
2.69,0.6287832,0.655429812,0.683205656
2.7,0.628482704,0.655253874,0.683165403
2.71,0.628585792,0.655646502,0.68387218
2.72,0.630578927,0.657339421,0.685235577
2.73,0.629591858,0.657451869,0.686544711
2.74,0.631286194,0.657954249,0.685748869
2.75,0.632311142,0.659477987,0.687812039
2.76,0.633336459,0.660049254,0.687888738
2.77,0.63312962,0.660842256,0.689767899
2.78,0.63488721,0.661996319,0.690262962
2.79,0.635271563,0.662051343,0.689960021
2.8,0.635610106,0.662974928,0.691517883
2.81,0.636524525,0.663885714,0.692423032
2.82,0.638720022,0.665726545,0.693874964
2.83,0.638339462,0.665562595,0.693946707
2.84,0.637990012,0.665650756,0.694510763
2.85,0.638905015,0.666044453,0.694336721
2.86,0.640586733,0.668330813,0.697276501
2.87,0.641420628,0.6689417,0.697643603
2.88,0.641514748,0.669144888,0.697965062
2.89,0.642374681,0.669859571,0.69852044
2.9,0.643542713,0.671250905,0.700152093
2.91,0.644134893,0.671634396,0.700307912
2.92,0.64505236,0.67275457,0.70164647
2.93,0.645359277,0.673422085,0.702705177
2.94,0.64731787,0.674760443,0.703366424
2.95,0.64624102,0.674091852,0.703142963
2.96,0.647072345,0.675307137,0.704773945
2.97,0.647939781,0.676006043,0.705288028
2.98,0.649289529,0.677103003,0.706107917
2.99,0.65036903,0.677748033,0.706279628
3,0.650960027,0.678675146,0.707570257
3.01,0.651556235,0.679403816,0.708441605
3.02,0.651003487,0.679318919,0.708865931
3.03,0.652718422,0.680981493,0.710468372
3.04,0.65221927,0.680708392,0.710441926
3.05,0.653587702,0.68157913,0.710769356
3.06,0.654398632,0.68306335,0.712983673
3.07,0.653772224,0.682773938,0.713062185
3.08,0.65665409,0.6848526,0.714262031
3.09,0.656042953,0.684673064,0.71455261
3.1,0.656895874,0.685428785,0.715201049
3.11,0.657934904,0.686583542,0.716479636
3.12,0.658278576,0.686556748,0.716049687
3.13,0.657777829,0.686831407,0.717168261
3.14,0.660277909,0.688723027,0.718393576
3.15,0.659245843,0.688175355,0.718374374
3.16,0.661898747,0.690213443,0.719739384
3.17,0.661761525,0.690716015,0.72093737
3.18,0.662857984,0.692469299,0.723403417
3.19,0.663063146,0.692007989,0.722216367
3.2,0.663169411,0.692393508,0.722905432
3.21,0.664053668,0.693241424,0.723712095
3.22,0.664211917,0.693747283,0.724595991
3.23,0.665093385,0.693692905,0.723522225
3.24,0.667064468,0.696116178,0.726433136
3.25,0.667239966,0.696451986,0.726942919
3.26,0.667680056,0.696794968,0.727179468
3.27,0.667937429,0.696852573,0.72701946
3.28,0.668269049,0.69820278,0.729477331
3.29,0.668805284,0.698639605,0.729804787
3.3,0.670178773,0.699051336,0.729167783
3.31,0.670157448,0.699956665,0.731080933
3.32,0.670730935,0.70037677,0.731332931
3.33,0.670892335,0.700909714,0.732270145
3.34,0.672035022,0.701816607,0.73291798
3.35,0.672644669,0.702333787,0.73333332
3.36,0.673921128,0.703667585,0.734727032
3.37,0.67359767,0.703896314,0.7355578
3.38,0.673577717,0.704077211,0.735957717
3.39,0.674466852,0.704646141,0.736175814
3.4,0.675986524,0.705732118,0.736786615
3.41,0.676400378,0.706806051,0.738578525
3.42,0.67681228,0.706957344,0.738445063
3.43,0.678113205,0.708609886,0.74047809
3.44,0.678199372,0.707874667,0.738848436
3.45,0.677698611,0.708636425,0.74098659
3.46,0.678965181,0.709379066,0.741155325
3.47,0.67972425,0.70997897,0.741580336
3.48,0.679915042,0.710714204,0.742908524
3.49,0.681379045,0.711859965,0.743704423
3.5,0.6816262,0.712182606,0.744108815
3.51,0.682595498,0.712857959,0.744462087
3.52,0.684337267,0.713869454,0.744676085
3.53,0.683994178,0.714657059,0.746694531
3.54,0.68408665,0.714715529,0.746715766
3.55,0.68504826,0.715443336,0.747187019
3.56,0.685475427,0.716231703,0.748367967
3.57,0.68756099,0.717248447,0.748217748
3.58,0.686769901,0.717175563,0.748927389
3.59,0.687046911,0.717837796,0.750008614
3.6,0.686749375,0.71793075,0.750527894
3.61,0.689015896,0.719762691,0.751881538
3.62,0.688582909,0.71940627,0.751609392
3.63,0.690075096,0.720928751,0.753161891
3.64,0.690084161,0.721223489,0.753767947
3.65,0.689793965,0.721510506,0.754685364
3.66,0.690815388,0.72217214,0.754952203
3.67,0.692367044,0.723076345,0.755147728
3.68,0.691913987,0.723455945,0.75643579
3.69,0.692732284,0.723888422,0.756445829
3.7,0.692683367,0.72452935,0.757839445
3.71,0.694230057,0.725813467,0.758833738
3.72,0.693910165,0.72515644,0.757809713
3.73,0.695186458,0.726511929,0.759248943
3.74,0.695559814,0.7270231,0.759909612
3.75,0.695764975,0.727348784,0.760366319
3.76,0.696893811,0.728290679,0.761102056
3.77,0.696976168,0.728723817,0.761917588
3.78,0.697448796,0.729006448,0.761991998
3.79,0.698921123,0.729844624,0.762136325
3.8,0.698805853,0.730517722,0.763668679
3.81,0.699228348,0.731262484,0.764764218
3.82,0.70052802,0.731853984,0.764580772
3.83,0.700707977,0.732369288,0.765461207
3.84,0.701283129,0.732587362,0.765288968
3.85,0.701900455,0.733779985,0.767107449
3.86,0.701411478,0.732925316,0.765855046
3.87,0.702530726,0.734718993,0.768382048
3.88,0.702696415,0.734732317,0.768228733
3.89,0.703358673,0.73577271,0.769680536
3.9,0.704224091,0.736502397,0.770260189
3.91,0.705830482,0.737514272,0.770620305
3.92,0.704822776,0.737226049,0.771119017
3.93,0.70562641,0.737584075,0.770989097
3.94,0.706358437,0.738489073,0.772081258
3.95,0.70645783,0.738786248,0.772594056
3.96,0.707426219,0.73968161,0.773407698
3.97,0.707243637,0.740105726,0.774494753
3.98,0.708049384,0.740563514,0.774570715
3.99,0.708650735,0.74097929,0.77478267
4,0.709257336,0.741610706,0.775439902
4.01,0.709319792,0.741862435,0.775898091
4.02,0.710205467,0.742995611,0.777299674
4.03,0.710614259,0.74319599,0.777271597
4.04,0.711034422,0.743599979,0.777657046
4.05,0.711896246,0.743862955,0.777265084
4.06,0.711930914,0.744586501,0.778739969
4.07,0.712625798,0.745481183,0.779851354
4.08,0.713487044,0.74573536,0.779441241
4.09,0.713869456,0.746663933,0.780964957
4.1,0.714631234,0.747442367,0.78175997
4.11,0.715143373,0.747685468,0.781708369
4.12,0.716259396,0.748951307,0.783135361
4.13,0.715116055,0.747914573,0.782217382
4.14,0.716111103,0.749240631,0.783902835
4.15,0.716516418,0.749846183,0.784726328
4.16,0.717604316,0.750329286,0.784546616
4.17,0.718782386,0.75133129,0.785354118
4.18,0.718356382,0.751069801,0.785272965
4.19,0.718497342,0.751452684,0.78591959
4.2,0.718877682,0.751821141,0.786274275
4.21,0.719584864,0.753180895,0.788345461
4.22,0.720078338,0.753238522,0.78792576
4.23,0.720215183,0.753641711,0.788619627
4.24,0.72111203,0.754251669,0.788914284
4.25,0.720995447,0.754291044,0.789124233
4.26,0.722039139,0.755881034,0.791309095
4.27,0.721897378,0.755445479,0.790552631
4.28,0.723460579,0.757117024,0.792339216
4.29,0.72336081,0.756597979,0.791362337
4.3,0.72409094,0.757572582,0.7926024
4.31,0.723507511,0.757190201,0.792440979
4.32,0.72435799,0.75769329,0.792562698
4.33,0.724651992,0.758219464,0.793341856
4.34,0.726013914,0.759401762,0.794325046
4.35,0.725509648,0.759281983,0.794626412
4.36,0.726937249,0.760248286,0.795085762
4.37,0.727943054,0.761265785,0.796113916
4.38,0.727022455,0.760531352,0.795584694
4.39,0.727030085,0.761394207,0.797382598
4.4,0.728798009,0.761842234,0.796384708
4.41,0.7299931,0.763045538,0.797594516
4.42,0.729373374,0.763284321,0.7987719
4.43,0.729770443,0.763701634,0.79921048
4.44,0.73068691,0.764079269,0.798997658
4.45,0.730958719,0.764849525,0.800311674
4.46,0.73177297,0.765587724,0.800965036
4.47,0.731639881,0.765898634,0.80176154
4.48,0.732786928,0.766111356,0.800951256
4.49,0.732705045,0.766710344,0.802293852
4.5,0.73249351,0.76704838,0.803233352
4.51,0.733251259,0.767380383,0.803098044
4.52,0.732954115,0.767623258,0.803932272
4.53,0.734395141,0.768888503,0.805001962
4.54,0.733970258,0.768782751,0.805246415
4.55,0.734643096,0.769017434,0.805000165
4.56,0.735658266,0.770450807,0.806888841
4.57,0.735128163,0.769930077,0.806379558
4.58,0.737178542,0.771065608,0.806510415
4.59,0.737632769,0.771659682,0.807256253
4.6,0.738331731,0.771740073,0.806660088
4.61,0.737502975,0.772144256,0.808412674
4.62,0.737512244,0.771965325,0.80802789
4.63,0.738510205,0.772894718,0.80888015
4.64,0.73921174,0.773731117,0.809862464
4.65,0.738919378,0.77365225,0.810017738
4.66,0.74020216,0.77476574,0.81094326
4.67,0.740851858,0.775293262,0.811335808
4.68,0.740272731,0.775011582,0.811380626
4.69,0.741335151,0.775709592,0.811677917
4.7,0.741905507,0.77673377,0.813197022
4.71,0.742183822,0.777295652,0.814068582
4.72,0.742089185,0.777162061,0.813892563
4.73,0.743065033,0.777424652,0.813373072
4.74,0.743368301,0.778001913,0.814249108
4.75,0.743623554,0.778100998,0.814176956
4.76,0.74388721,0.779052228,0.815879567
4.77,0.743923715,0.779075833,0.81588897
4.78,0.743598126,0.779293327,0.816702017
