flow depth [m],16th percentile vulnerability,median vulnerability,84th percentile vulnerability
0.000001,0.194411837,0.199369462,0.20445351
0.01,0.197099832,0.203985795,0.211112328
0.02,0.200802548,0.209792811,0.219185582
0.03,0.204310983,0.2153098,0.226900724
0.04,0.208205167,0.220553811,0.233634852
0.05,0.212287496,0.226212214,0.241050306
0.06,0.216324488,0.231105714,0.246896925
0.07,0.220529209,0.236267832,0.253129682
0.08,0.22419492,0.240980679,0.259023208
0.09,0.228308438,0.245713986,0.264446481
0.1,0.232038175,0.250354266,0.270116149
0.11,0.236116563,0.254878317,0.275130876
0.12,0.239450334,0.259140232,0.280449223
0.13,0.243787628,0.263519252,0.284847909
0.14,0.24773971,0.26792042,0.289745036
0.15,0.250884859,0.271849905,0.294566883
0.16,0.254807375,0.275934023,0.298812329
0.17,0.257466365,0.279422436,0.303250864
0.18,0.261431644,0.283495562,0.307421598
0.19,0.265549962,0.287513772,0.311294224
0.2,0.26885203,0.291041189,0.315061687
0.21,0.271379867,0.294567121,0.319735542
0.22,0.275818695,0.298919112,0.323954239
0.23,0.2783906,0.301766006,0.327104157
0.24,0.282824841,0.305743716,0.330519835
0.25,0.285615845,0.309166596,0.334659248
0.26,0.289241337,0.312452903,0.337527193
0.27,0.291945066,0.315786694,0.341575343
0.28,0.295412661,0.319335144,0.345194866
0.29,0.298376677,0.322148306,0.347813816
0.3,0.300836871,0.325029323,0.351167264
0.31,0.303848847,0.328439027,0.355019266
0.32,0.30773138,0.331846429,0.357851229
0.33,0.310892998,0.334776509,0.360494806
0.34,0.313136507,0.337572692,0.3639158
0.35,0.316049976,0.340777109,0.367438845
0.36,0.319527958,0.34391594,0.370165335
0.37,0.321752853,0.346258753,0.372631114
0.38,0.324160182,0.349064977,0.375883174
0.39,0.326847311,0.351686753,0.37841392
0.4,0.330497543,0.355269898,0.381899058
0.41,0.332654841,0.35757671,0.384365677
0.42,0.335671648,0.360203596,0.386528416
0.43,0.337842342,0.362581372,0.389131956
0.44,0.341348373,0.366012225,0.392458144
0.45,0.343319146,0.36835387,0.395214117
0.46,0.345952955,0.370745648,0.397315109
0.47,0.349117301,0.373849134,0.400332995
0.48,0.351563321,0.376301216,0.402779802
0.49,0.352634362,0.377778444,0.404715388
0.5,0.356268675,0.381477412,0.408469861
0.51,0.358596094,0.383395523,0.409910006
0.52,0.360033241,0.385444193,0.412648637
0.53,0.363551254,0.388623626,0.415425118
0.54,0.365801663,0.390343866,0.416532644
0.55,0.36814844,0.39311346,0.419771418
0.56,0.370851759,0.395305309,0.421371299
0.57,0.373231759,0.397722239,0.42381972
0.58,0.375116921,0.399947793,0.426422346
0.59,0.377774596,0.402304479,0.428427151
0.6,0.379633754,0.404571123,0.431146577
0.61,0.382071041,0.40678112,0.4330893
0.62,0.384224466,0.408848094,0.435049765
0.63,0.3868397,0.411317729,0.437344652
0.64,0.38886922,0.413527934,0.43975029
0.65,0.390810245,0.415414303,0.441567346
0.66,0.393031663,0.417290989,0.443047688
0.67,0.394389179,0.419148579,0.445462352
0.68,0.396462832,0.421591604,0.448313098
0.69,0.399664417,0.423599753,0.448968541
0.7,0.401699715,0.426201761,0.452198332
0.71,0.403267894,0.427877364,0.453988629
0.72,0.404950904,0.429531863,0.455604912
0.73,0.40846565,0.432178469,0.457267899
0.74,0.409773187,0.434377155,0.460458416
0.75,0.411547467,0.435494723,0.46083543
0.76,0.413659676,0.438100345,0.463985067
0.77,0.41518707,0.439227825,0.464660623
0.78,0.417032074,0.441122688,0.46660494
0.79,0.418831906,0.443365103,0.469335339
0.8,0.420827249,0.445095204,0.470762624
0.81,0.423346362,0.447780071,0.473623987
0.82,0.424914606,0.44913984,0.474746203
0.83,0.426351969,0.450679182,0.47639448
0.84,0.429305118,0.453508679,0.479076798
0.85,0.430207222,0.45452227,0.48021159
0.86,0.432298353,0.456333731,0.481705452
0.87,0.43365882,0.457696143,0.483065834
0.88,0.435747572,0.459538747,0.484628885
0.89,0.438009127,0.462312034,0.487963387
0.9,0.440118779,0.464057568,0.489298426
0.91,0.441636466,0.465359594,0.490357044
0.92,0.44223141,0.466668137,0.492455183
0.93,0.44396259,0.467840314,0.493002257
0.94,0.44646722,0.470165147,0.495120929
0.95,0.447571298,0.471285593,0.496256375
0.96,0.449665605,0.473293951,0.498163884
0.97,0.451043659,0.474586884,0.499359001
0.98,0.453313617,0.477146223,0.502231809
0.99,0.45423165,0.4782774,0.503596063
1,0.455337981,0.479544714,0.505038328
1.01,0.457918772,0.481767667,0.506858636
1.02,0.459738832,0.483278162,0.508022742
1.03,0.460875318,0.484328894,0.508976002
1.04,0.463038565,0.486647754,0.511460718
1.05,0.464614618,0.488274316,0.513138844
1.06,0.466281945,0.489733685,0.514364933
1.07,0.466810833,0.490659886,0.515727371
1.08,0.468762238,0.492075357,0.516547915
1.09,0.471069493,0.494567069,0.519236736
1.1,0.471774097,0.495663936,0.520763516
1.11,0.472704493,0.496312185,0.521098886
1.12,0.474122087,0.497816443,0.52269493
1.13,0.475803156,0.499540553,0.524462188
1.14,0.477840913,0.501523976,0.526380834
1.15,0.479623496,0.503150108,0.527830754
1.16,0.480383925,0.503746278,0.528244805
1.17,0.482576169,0.505800655,0.530142844
1.18,0.483334786,0.506718945,0.53123445
1.19,0.485147057,0.508770874,0.533545033
1.2,0.486073061,0.509687386,0.534448939
1.21,0.487522614,0.511286742,0.536209243
1.22,0.488960265,0.512854853,0.537917127
1.23,0.490346557,0.513929561,0.53864678
1.24,0.491736209,0.51547768,0.54036541
1.25,0.493868844,0.517389001,0.54202929
1.26,0.493928866,0.517530062,0.542258985
1.27,0.496103419,0.519825701,0.544682317
1.28,0.497184369,0.520661366,0.545246945
1.29,0.498029311,0.521920702,0.546958208
1.3,0.499961486,0.523516252,0.548180757
1.31,0.500776744,0.524676127,0.549716099
1.32,0.502803965,0.526329496,0.550955755
1.33,0.503938043,0.527683865,0.552548603
1.34,0.505063432,0.528538476,0.553104626
1.35,0.506844273,0.530327516,0.55489879
1.36,0.507732592,0.531387689,0.55614487
1.37,0.509042567,0.532652456,0.557357395
1.38,0.510963995,0.53410209,0.558287952
1.39,0.511318568,0.534838412,0.559440131
1.4,0.511762455,0.535672779,0.560700231
1.41,0.512948108,0.536917791,0.562007559
1.42,0.51493446,0.538163223,0.562439838
1.43,0.517240367,0.540497722,0.564800828
1.44,0.517850839,0.541400133,0.566020332
1.45,0.518458784,0.542379454,0.567403778
1.46,0.520344025,0.544078098,0.568894736
1.47,0.522277007,0.545423476,0.569595759
1.48,0.52254352,0.546750351,0.572078563
1.49,0.523559407,0.54688267,0.571244927
1.5,0.524065662,0.547798977,0.5726071
1.51,0.525657838,0.549536112,0.574499068
1.52,0.526733263,0.55033174,0.574987466
1.53,0.528143887,0.551275797,0.575420851
1.54,0.528391471,0.552406317,0.577512613
1.55,0.531168913,0.554099192,0.578019359
1.56,0.531187629,0.555283711,0.580472854
1.57,0.532678955,0.556100226,0.580551303
1.58,0.53459869,0.557655147,0.581705996
1.59,0.534242575,0.558141122,0.583108736
1.6,0.536085502,0.559808799,0.584581918
1.61,0.536499385,0.559640835,0.583780472
1.62,0.538235868,0.56124786,0.585243718
1.63,0.538566803,0.562655521,0.587821667
1.64,0.539853125,0.563488123,0.588157872
1.65,0.53917737,0.564022805,0.590013126
1.66,0.542485133,0.566098004,0.590738678
1.67,0.543718439,0.567339236,0.591986193
1.68,0.544835141,0.569093934,0.594432849
1.69,0.544689613,0.56886276,0.594108704
1.7,0.545513871,0.570151976,0.595902859
1.71,0.548523696,0.571851617,0.596171642
1.72,0.54861416,0.572634706,0.597706968
1.73,0.549027538,0.573285097,0.598614422
1.74,0.551519606,0.574681056,0.598815188
1.75,0.551174645,0.575117327,0.600100065
1.76,0.552610108,0.576722728,0.60188748
1.77,0.553315049,0.577175391,0.602064652
1.78,0.554944582,0.578637542,0.603342056
1.79,0.55613439,0.580334204,0.605587057
1.8,0.556475454,0.580709801,0.605999546
1.81,0.557142801,0.581484283,0.60688924
1.82,0.55691424,0.581934171,0.608078149
1.83,0.559326477,0.583640773,0.609012028
1.84,0.559347211,0.584455904,0.610691708
1.85,0.560825759,0.585246271,0.610730146
1.86,0.562605164,0.586717317,0.611862869
1.87,0.563272163,0.587194763,0.612133375
1.88,0.564230418,0.588155377,0.613094821
1.89,0.564423809,0.589335316,0.615346321
1.9,0.565383958,0.589473556,0.61458955
1.91,0.566122776,0.590775225,0.616501193
1.92,0.56785206,0.591759473,0.616673424
1.93,0.568926037,0.593359027,0.618841311
1.94,0.56900334,0.593638115,0.619339444
1.95,0.570327804,0.594320187,0.619321875
1.96,0.570934425,0.5953729,0.620857448
1.97,0.571387282,0.596327764,0.622356872
1.98,0.573600345,0.598201314,0.623857386
1.99,0.573987767,0.598577066,0.624219756
2,0.574227226,0.598817668,0.624461159
2.01,0.575978576,0.60039026,0.625836583
2.02,0.576261015,0.6006718,0.62611664
2.03,0.578558449,0.602355044,0.627130414
2.04,0.578560242,0.603232042,0.628955933
2.05,0.579078659,0.60425791,0.630531994
2.06,0.579340501,0.604048745,0.629810769
2.07,0.580494368,0.605459871,0.631499072
2.08,0.581528665,0.605972362,0.631443514
2.09,0.582864907,0.60763783,0.633463652
2.1,0.583888307,0.608340072,0.633815814
2.11,0.584733682,0.60942629,0.635161637
2.12,0.585468049,0.610401471,0.636396737
2.13,0.5855944,0.610402748,0.636262086
2.14,0.586818593,0.611830488,0.637908462
2.15,0.587004187,0.611771082,0.637582943
2.16,0.588125904,0.613073663,0.639079683
2.17,0.589272667,0.614030097,0.639827674
2.18,0.589543997,0.614571544,0.640661571
2.19,0.590780413,0.615916839,0.642122765
2.2,0.591090789,0.616351176,0.64269107
2.21,0.592089902,0.617139079,0.643247996
2.22,0.593394565,0.618322335,0.64429729
2.23,0.593726788,0.618795525,0.644922732
2.24,0.593768663,0.619129562,0.645573671
2.25,0.595718985,0.620934458,0.647217246
2.26,0.595306068,0.620660946,0.647095722
2.27,0.59787021,0.622819685,0.648810315
2.28,0.597775635,0.623384771,0.650091022
2.29,0.599509078,0.624906594,0.651380046
2.3,0.599701547,0.624848824,0.651050602
2.31,0.600137016,0.625295525,0.651508711
2.32,0.600826654,0.625968378,0.652162164
2.33,0.601391359,0.626607053,0.652880014
2.34,0.601876578,0.627424404,0.654056656
2.35,0.60392245,0.629115473,0.65535944
2.36,0.604293693,0.629445968,0.655645147
2.37,0.604160031,0.630271303,0.657511082
2.38,0.60539986,0.630408564,0.656450363
2.39,0.605955808,0.631969679,0.659100333
2.4,0.606482177,0.632284611,0.659184794
2.41,0.606578999,0.632373738,0.659265396
2.42,0.607826356,0.633660876,0.660593444
2.43,0.608335961,0.633777792,0.660283652
2.44,0.609342728,0.635511205,0.662803497
2.45,0.609798084,0.635519307,0.662325448
2.46,0.611114357,0.637034448,0.664053926
2.47,0.612074301,0.63804828,0.665124491
2.48,0.611868818,0.638279629,0.66583044
2.49,0.611644307,0.638034347,0.665563013
2.5,0.612825175,0.639287694,0.666892897
2.51,0.613877148,0.639617838,0.666437869
2.52,0.615499471,0.641307145,0.668196925
2.53,0.615906177,0.641615331,0.668397636
2.54,0.61701804,0.64312532,0.670337252
2.55,0.616849834,0.642591626,0.669407649
2.56,0.617340713,0.64351172,0.670792197
2.57,0.617109351,0.643812988,0.671672149
2.58,0.618540663,0.64518423,0.672975466
2.59,0.619370183,0.645792784,0.673342586
2.6,0.620205921,0.646573718,0.67406253
2.61,0.621106513,0.647472687,0.674958113
2.62,0.621538317,0.647724505,0.675013949
2.63,0.622368153,0.649135237,0.677053532
2.64,0.623051275,0.649624828,0.677331761
2.65,0.623074578,0.65007126,0.67823766
2.66,0.624099735,0.650472321,0.677959335
2.67,0.62531572,0.651904222,0.679623271
2.68,0.62609896,0.652169972,0.679326591
2.69,0.626099746,0.652707248,0.680445495
2.7,0.627276023,0.653595714,0.681019746
2.71,0.626685297,0.653372067,0.681195268
2.72,0.628442885,0.655042968,0.682768951
2.73,0.628354804,0.654854731,0.682472253
2.74,0.629657645,0.656522209,0.68453296
2.75,0.629669427,0.656954462,0.685421821
2.76,0.630537693,0.657426558,0.68546208
2.77,0.631432415,0.658377762,0.686472958
2.78,0.630637757,0.658652484,0.687911705
2.79,0.632713172,0.659452309,0.687321471
2.8,0.63321852,0.659835179,0.687570641
2.81,0.634065806,0.661072249,0.689228963
2.82,0.63412164,0.661421651,0.689896973
2.83,0.63474203,0.661326104,0.689023564
2.84,0.635079619,0.66226211,0.690608057
2.85,0.636134156,0.663205341,0.69142856
2.86,0.637484217,0.664002579,0.691624063
2.87,0.637176034,0.664566244,0.693133873
2.88,0.638320384,0.665110313,0.6930246
2.89,0.637202606,0.664837474,0.69367084
2.9,0.638760953,0.665949244,0.694294781
2.91,0.639983554,0.667442937,0.696080504
2.92,0.640074448,0.667465388,0.69602848
2.93,0.640987349,0.668233287,0.696637346
2.94,0.642116468,0.66903718,0.697086541
2.95,0.641800805,0.669206979,0.697783451
2.96,0.642099707,0.670282092,0.69970143
2.97,0.642237721,0.669871605,0.698694506
2.98,0.643845892,0.671586975,0.700523326
2.99,0.644713051,0.672127025,0.700706675
3,0.644316135,0.672121394,0.701126581
3.01,0.646151208,0.673487519,0.701980331
3.02,0.646199487,0.673675142,0.702319031
3.03,0.645910487,0.673712647,0.702711505
3.04,0.646422138,0.674663462,0.704138613
3.05,0.647713753,0.675805278,0.70511514
3.06,0.648059449,0.67571662,0.704554114
3.07,0.647674899,0.676581875,0.706779025
3.08,0.649067621,0.677277394,0.706713221
3.09,0.649289527,0.677358283,0.70664045
3.1,0.649888128,0.67752555,0.706338294
3.11,0.650472136,0.678318015,0.707355941
3.12,0.65137282,0.679020605,0.707841911
3.13,0.6523011,0.67953073,0.707897032
3.14,0.653216897,0.680548922,0.709024579
3.15,0.652286318,0.680482195,0.709896874
3.16,0.65385272,0.681418846,0.710147147
3.17,0.653591433,0.681656876,0.710927459
3.18,0.654290484,0.68285788,0.712672575
3.19,0.654319807,0.68250233,0.711898716
3.2,0.655304609,0.683500187,0.712908927
3.21,0.656766176,0.684912965,0.714266031
3.22,0.65702325,0.685126709,0.714432263
3.23,0.657890114,0.686000685,0.715312374
3.24,0.657902899,0.685989988,0.715276167
3.25,0.658200783,0.686581751,0.716186478
3.26,0.659019064,0.687081565,0.716339029
3.27,0.659165246,0.687462899,0.716975357
3.28,0.661024264,0.688607939,0.717342644
3.29,0.660377434,0.68874695,0.718335208
3.3,0.661536161,0.689492226,0.718629695
3.31,0.661759328,0.689557097,0.718522535
3.32,0.662393402,0.690382508,0.71955428
3.33,0.661940733,0.690645233,0.720594479
3.34,0.662977719,0.691313363,0.720860071
3.35,0.663383031,0.691852998,0.721544791
3.36,0.663330955,0.691942721,0.721788611
3.37,0.664977896,0.692948745,0.722096128
3.38,0.664534386,0.693244456,0.723194894
3.39,0.666142388,0.695040815,0.725192905
3.4,0.665022864,0.693983505,0.724205334
3.41,0.666493606,0.695002222,0.724730266
3.42,0.665739095,0.69477862,0.725084849
3.43,0.66650438,0.695366153,0.725477733
3.44,0.666404206,0.695704503,0.726293068
3.45,0.667729176,0.696981389,0.727515099
3.46,0.66879535,0.69681842,0.726015679
3.47,0.668998799,0.698046404,0.728355243
3.48,0.669372128,0.698395959,0.728678257
3.49,0.669517459,0.698166624,0.728041709
3.5,0.670602895,0.699301107,0.729227448
3.51,0.670570009,0.699346443,0.729357772
3.52,0.672204514,0.700783315,0.730577144
3.53,0.672197026,0.701180677,0.731414039
3.54,0.672357222,0.701408283,0.731714575
3.55,0.671991173,0.701669312,0.73265817
3.56,0.673727957,0.702775535,0.733075491
3.57,0.673292926,0.702547984,0.733074195
3.58,0.674387176,0.703704381,0.734296074
3.59,0.67533459,0.704072248,0.734032786
3.6,0.675256576,0.704611328,0.73524219
3.61,0.675713838,0.705034829,0.735628134
3.62,0.676096397,0.70501379,0.735168011
3.63,0.676341624,0.705679566,0.736290113
3.64,0.677317089,0.706586913,0.737121615
3.65,0.676920424,0.706253021,0.736856671
3.66,0.677525361,0.70678095,0.737299797
3.67,0.678122064,0.70800206,0.739198654
3.68,0.677967931,0.707637589,0.738605668
3.69,0.679766912,0.70936282,0.740247284
3.7,0.679634171,0.70918637,0.740023573
3.71,0.680483458,0.709477519,0.739706959
3.72,0.681319624,0.71009919,0.740094431
3.73,0.681127848,0.709953136,0.739998308
3.74,0.680924136,0.710757259,0.741897451
3.75,0.68207138,0.7114923,0.742182281
3.76,0.681725704,0.711732692,0.743060474
3.77,0.683161004,0.712588947,0.743284533
3.78,0.683499663,0.712916968,0.743600372
3.79,0.683085755,0.712711079,0.743621249
3.8,0.683526901,0.713689636,0.745183395
3.81,0.6843266,0.714115886,0.745201923
3.82,0.684657332,0.714954613,0.746592602
3.83,0.684550187,0.714710417,0.746199461
3.84,0.685605538,0.715270983,0.74622002
3.85,0.686040561,0.716147946,0.747576615
3.86,0.686293288,0.715877046,0.746736058
3.87,0.687335672,0.716626779,0.747166138
3.88,0.68640627,0.716532998,0.747982003
3.89,0.687943662,0.717636223,0.748610355
3.9,0.687761647,0.717568645,0.748667452
3.91,0.688300242,0.718734062,0.750513541
3.92,0.688200464,0.718416853,0.749959934
3.93,0.690764523,0.719869315,0.750200413
3.94,0.690083975,0.719746015,0.750683024
3.95,0.690260493,0.720224056,0.751488308
3.96,0.690130504,0.720730874,0.752688063
3.97,0.69152834,0.720905922,0.751531525
3.98,0.691956979,0.721605841,0.752525091
3.99,0.692606614,0.722759201,0.754224479
4,0.692751312,0.722602939,0.753740914
4.01,0.691507413,0.722356681,0.754582185
4.02,0.693356795,0.723394947,0.754734435
4.03,0.69355457,0.723431592,0.754595659
4.04,0.693622674,0.724322583,0.756381277
4.05,0.695652921,0.725389965,0.756398177
4.06,0.694106355,0.724698538,0.756639048
4.07,0.695137224,0.725322762,0.756819073
4.08,0.694713312,0.725680225,0.758027491
4.09,0.69615883,0.726040336,0.757204458
4.1,0.696263089,0.72656714,0.75819014
4.11,0.697907403,0.727600267,0.758556431
4.12,0.697473949,0.727507051,0.758833373
4.13,0.697181584,0.727838261,0.759842983
4.14,0.697019791,0.727522333,0.759359709
4.15,0.697408077,0.728536641,0.761054617
4.16,0.698664141,0.729090519,0.760841947
4.17,0.699735607,0.72960938,0.760758553
4.18,0.698867,0.729229781,0.760911695
4.19,0.699552548,0.730334495,0.76247092
4.2,0.700386655,0.730576894,0.762068486
4.21,0.702056226,0.732039963,0.76330426
4.22,0.702220583,0.732885302,0.764889094
4.23,0.701380951,0.731651894,0.763229303
4.24,0.701839819,0.732753708,0.765029259
4.25,0.702115393,0.732719266,0.764657103
4.26,0.702343024,0.733087965,0.76517876
4.27,0.70269597,0.7334211,0.765489676
4.28,0.703309016,0.733642164,0.765283557
4.29,0.702757632,0.733974445,0.766577923
4.3,0.704167698,0.735348335,0.767909656
4.31,0.704773594,0.735124975,0.766783451
4.32,0.705112387,0.73541455,0.767018946
4.33,0.705317605,0.735762305,0.767521137
4.34,0.704950928,0.735484002,0.767339536
4.35,0.705583211,0.736085274,0.767905929
4.36,0.706071784,0.737134446,0.769563668
4.37,0.707019613,0.737421139,0.769129918
4.38,0.70686238,0.737939945,0.77038385
4.39,0.707027227,0.738382742,0.771128823
4.4,0.707076288,0.738329013,0.770963106
4.41,0.707747895,0.738711717,0.771030198
4.42,0.708145281,0.739164641,0.771542763
4.43,0.708158091,0.739235233,0.771676178
4.44,0.709251458,0.739820151,0.771706352
4.45,0.709053818,0.739268764,0.77077126
4.46,0.709595734,0.740304533,0.772342299
4.47,0.710035957,0.740830569,0.772960759
4.48,0.710359599,0.741251798,0.773487439
4.49,0.711267242,0.74184275,0.773732617
4.5,0.710473606,0.741992514,0.774909702
4.51,0.711609278,0.742292058,0.774297802
4.52,0.712186579,0.743011372,0.77517032
4.53,0.71264645,0.74346188,0.775609794
4.54,0.713115996,0.743990697,0.776202132
4.55,0.713243921,0.74424931,0.776602533
4.56,0.713435463,0.744525042,0.77696942
4.57,0.714331884,0.74507496,0.777141141
4.58,0.714517409,0.745595005,0.778024307
4.59,0.714106932,0.744983105,0.777194286
4.6,0.715238123,0.746085576,0.778263446
4.61,0.7144885,0.745539529,0.777940008
4.62,0.714571625,0.746377239,0.779598523
4.63,0.715358047,0.746826636,0.779679529
4.64,0.716103264,0.747320968,0.779899573
4.65,0.716811773,0.748292069,0.781154889
4.66,0.716163321,0.747503176,0.780214487
4.67,0.716107946,0.747519971,0.780309882
4.68,0.717949499,0.74875072,0.780873365
4.69,0.717509502,0.748958176,0.781785256
4.7,0.718605141,0.750061243,0.7828943
4.71,0.718103381,0.749165228,0.781570667
4.72,0.718193117,0.749641099,0.782466113
4.73,0.718261562,0.750015358,0.783172965
4.74,0.718980539,0.750473939,0.78334684
4.75,0.719475547,0.750662829,0.783201993
4.76,0.720825588,0.75201555,0.784555096
4.77,0.720011417,0.751926309,0.785255845
4.78,0.720654542,0.752058831,0.78483164
