flow depth [m],16th percentile vulnerability,median vulnerability,84th percentile vulnerability
0.000001,0.121005718,0.124045484,0.127161612
0.01,0.121039308,0.124046226,0.127127844
0.02,0.121143823,0.124197502,0.127328156
0.03,0.121308872,0.12420647,0.127173281
0.04,0.121201175,0.124181888,0.127235906
0.05,0.121341271,0.124430253,0.127597872
0.06,0.121445708,0.124426685,0.127480833
0.07,0.121562952,0.124546174,0.127602607
0.08,0.121847077,0.124904518,0.128038678
0.09,0.121950452,0.125045448,0.128218991
0.1,0.122060938,0.125191392,0.128402133
0.11,0.122479517,0.125735719,0.12907849
0.12,0.122594935,0.125940485,0.129377332
0.13,0.122824841,0.126325263,0.129925444
0.14,0.123268835,0.126852158,0.130539645
0.15,0.123536557,0.127250795,0.131076704
0.16,0.123699531,0.127638181,0.13170224
0.17,0.12437034,0.128321521,0.13239823
0.18,0.124589686,0.128821283,0.133196604
0.19,0.125062702,0.129565618,0.134230662
0.2,0.125399551,0.130179612,0.135141883
0.21,0.126192383,0.1311011,0.136200761
0.22,0.12673175,0.131928851,0.137339078
0.23,0.127323618,0.1327747,0.138459158
0.24,0.127991425,0.133764461,0.139797889
0.25,0.128837948,0.134890621,0.141227641
0.26,0.129380535,0.135811182,0.142561454
0.27,0.130313271,0.137102152,0.144244711
0.28,0.131235298,0.13831084,0.145767859
0.29,0.132283371,0.139715542,0.147565281
0.3,0.133353645,0.141131435,0.149362861
0.31,0.134207285,0.142454558,0.151208641
0.32,0.135430395,0.144033805,0.153183758
0.33,0.136791149,0.145727022,0.155246631
0.34,0.137855647,0.147295927,0.157382672
0.35,0.139366984,0.14926093,0.159857267
0.36,0.140752855,0.151024816,0.162046411
0.37,0.14227722,0.152867951,0.164247029
0.38,0.143813377,0.154825018,0.166679809
0.39,0.145583904,0.157131328,0.169594671
0.4,0.147419535,0.159247028,0.172023442
0.41,0.149172037,0.161432961,0.174701651
0.42,0.151114358,0.163940786,0.177855906
0.43,0.153213247,0.166435759,0.180799392
0.44,0.155339666,0.168984139,0.183827094
0.45,0.157291052,0.171602735,0.187216617
0.46,0.159789654,0.174369784,0.19028029
0.47,0.162256973,0.177098672,0.193297947
0.48,0.164610297,0.180023613,0.196880158
0.49,0.167266783,0.183142359,0.200524713
0.5,0.17001979,0.18627394,0.204082012
0.51,0.172887831,0.189499785,0.207707902
0.52,0.17576997,0.192749941,0.211370236
0.53,0.178531144,0.19621814,0.215657379
0.54,0.181669505,0.199737597,0.219602666
0.55,0.184938431,0.20332626,0.22354233
0.56,0.18792904,0.206899491,0.227784909
0.57,0.191539809,0.210721091,0.231823235
0.58,0.194660885,0.214262605,0.235838154
0.59,0.198408,0.218300041,0.240186424
0.6,0.201755929,0.222483862,0.245341334
0.61,0.205652832,0.226345722,0.249120741
0.62,0.208973499,0.230276049,0.253750159
0.63,0.213166436,0.234405774,0.257761344
0.64,0.21688164,0.238874073,0.263096603
0.65,0.220939075,0.242959576,0.267174812
0.66,0.225024314,0.247440389,0.272089469
0.67,0.228538655,0.251363266,0.276467417
0.68,0.232855922,0.256067396,0.281592629
0.69,0.237051095,0.260492684,0.286252374
0.7,0.240949247,0.264668883,0.290723538
0.71,0.245512523,0.269439009,0.295697258
0.72,0.249423887,0.273787093,0.300530047
0.73,0.25392479,0.278280202,0.304971685
0.74,0.257938519,0.282737597,0.309920942
0.75,0.262387122,0.287225026,0.314414118
0.76,0.266874795,0.291880916,0.319230106
0.77,0.270527987,0.295648282,0.32310116
0.78,0.275267012,0.30044404,0.327923862
0.79,0.279560296,0.304988255,0.332729064
0.8,0.283458354,0.309143972,0.337157096
0.81,0.288086636,0.313576417,0.341321522
0.82,0.292181239,0.317707395,0.34546362
0.83,0.296398474,0.322067281,0.349959067
0.84,0.300477685,0.326108845,0.353926378
0.85,0.304678063,0.330126117,0.357699704
0.86,0.308312214,0.333923543,0.36166239
0.87,0.312362719,0.33794014,0.365611936
0.88,0.31656005,0.341886324,0.369238818
0.89,0.320395425,0.345564864,0.37271155
0.9,0.324447866,0.349428881,0.376333321
0.91,0.328056144,0.352942411,0.379716545
0.92,0.33151173,0.356208659,0.382745457
0.93,0.335119447,0.359614603,0.385900204
0.94,0.339217504,0.363288224,0.389066991
0.95,0.342612345,0.366388995,0.391815699
0.96,0.345956947,0.369497958,0.394640842
0.97,0.349343578,0.372545896,0.397289241
0.98,0.352536784,0.37542937,0.399808525
0.99,0.355532282,0.378089819,0.40207857
1,0.358657409,0.380736203,0.404174159
1.01,0.361987555,0.383683468,0.406679737
1.02,0.365055546,0.386481145,0.409164242
1.03,0.367785965,0.388826754,0.411071272
1.04,0.370538093,0.391249629,0.413118854
1.05,0.37330515,0.39361304,0.415025685
1.06,0.376232088,0.395977113,0.416758377
1.07,0.378602025,0.397986514,0.418363492
1.08,0.381346033,0.400467374,0.420547492
1.09,0.383658512,0.402387089,0.422029916
1.1,0.38588526,0.404188796,0.423360516
1.11,0.387816917,0.406200511,0.425455538
1.12,0.390082445,0.407907202,0.426546457
1.13,0.392422722,0.409910516,0.42817763
1.14,0.394251863,0.411417001,0.429329485
1.15,0.396324465,0.413009691,0.430397364
1.16,0.398312906,0.414818264,0.432007574
1.17,0.399884071,0.416242002,0.433269081
1.18,0.402014086,0.417908498,0.434431327
1.19,0.403575179,0.419346886,0.435734951
1.2,0.40527482,0.420717902,0.436749446
1.21,0.407161687,0.422258298,0.437914657
1.22,0.408547523,0.423517442,0.439035886
1.23,0.40970436,0.424731249,0.440309284
1.24,0.41144645,0.42586031,0.440779118
1.25,0.412446429,0.426977226,0.442019954
1.26,0.414114414,0.428418153,0.44321595
1.27,0.415640513,0.429593708,0.444015316
1.28,0.416571484,0.430773361,0.445459413
1.29,0.417944728,0.431875851,0.446271333
1.3,0.419089509,0.432987851,0.447347106
1.31,0.41984434,0.433705007,0.448023268
1.32,0.421279014,0.435102643,0.449379874
1.33,0.422170755,0.435949231,0.450177398
1.34,0.423716178,0.437359392,0.451441904
1.35,0.424401673,0.438139212,0.452321424
1.36,0.425577431,0.439302759,0.453470744
1.37,0.426268991,0.440008315,0.45419048
1.38,0.427556803,0.441189462,0.455256798
1.39,0.428404542,0.441932413,0.455887459
1.4,0.429383636,0.442862036,0.456763525
1.41,0.430332686,0.443893063,0.457880747
1.42,0.431104366,0.444788923,0.458907868
1.43,0.432262192,0.445745884,0.459650177
1.44,0.432918478,0.446631702,0.46077931
1.45,0.434082399,0.447575287,0.461487584
1.46,0.435019001,0.448497783,0.462394197
1.47,0.435679376,0.449404195,0.463561374
1.48,0.436558615,0.450234943,0.464339716
1.49,0.43749866,0.451299424,0.46553553
1.5,0.43832096,0.452104469,0.466321416
1.51,0.439078205,0.452865273,0.467085256
1.52,0.439740496,0.453789535,0.468287419
1.53,0.441009592,0.454877035,0.469180537
1.54,0.441545924,0.455710717,0.470329916
1.55,0.442377416,0.456456674,0.470984023
1.56,0.443254649,0.457458017,0.472116509
1.57,0.444171273,0.458364442,0.473011143
1.58,0.445083923,0.459344963,0.474062945
1.59,0.445838283,0.46011626,0.47485149
1.6,0.446771005,0.461014493,0.475712076
1.61,0.447532129,0.462031631,0.477000899
1.62,0.448554832,0.46313099,0.478180813
1.63,0.449586362,0.463981295,0.478837128
1.64,0.449909056,0.464642243,0.479857898
1.65,0.451183684,0.465694654,0.480672327
1.66,0.451756979,0.466592106,0.4819144
1.67,0.452988543,0.467626219,0.48273689
1.68,0.453667842,0.468444275,0.483701991
1.69,0.454391872,0.469466217,0.48504065
1.7,0.45531769,0.470214705,0.485599118
1.71,0.456288578,0.471223787,0.486647855
1.72,0.457153424,0.472230228,0.487804261
1.73,0.457723172,0.473026319,0.488841098
1.74,0.458760007,0.473947008,0.489636767
1.75,0.459900578,0.475198258,0.491004786
1.76,0.460768584,0.476065775,0.491870823
1.77,0.46162452,0.476838072,0.49255301
1.78,0.462781055,0.477940862,0.493597275
1.79,0.463444991,0.478827117,0.494719789
1.8,0.464063363,0.479660173,0.49578118
1.81,0.46518276,0.480819094,0.496981018
1.82,0.46631115,0.481982333,0.498180173
1.83,0.467319751,0.482992245,0.499190348
1.84,0.468333614,0.484222547,0.500650535
1.85,0.469003718,0.484954577,0.501447925
1.86,0.469772038,0.485976836,0.502740618
1.87,0.470909587,0.487033113,0.503708695
1.88,0.47165481,0.487814115,0.50452705
1.89,0.473159982,0.489268636,0.505925706
1.9,0.473847423,0.490094255,0.506898143
1.91,0.474724491,0.490845552,0.507514065
1.92,0.47592697,0.492274328,0.509183191
1.93,0.476697468,0.493284901,0.51044952
1.94,0.47784085,0.494232351,0.511186133
1.95,0.478832971,0.495457385,0.512658976
1.96,0.479711186,0.496412958,0.513696223
1.97,0.480783879,0.497667998,0.515145052
1.98,0.48197222,0.498778856,0.516171549
1.99,0.482525749,0.49956585,0.517207712
2,0.483527996,0.500753921,0.518593529
2.01,0.48480959,0.501834877,0.51945805
2.02,0.485764455,0.502899878,0.520639756
2.03,0.486549574,0.504048184,0.522176126
2.04,0.487357099,0.504947207,0.523172192
2.05,0.489130052,0.506511279,0.524510148
2.06,0.489772248,0.507433176,0.525730948
2.07,0.490807662,0.508554594,0.526943231
2.08,0.492207866,0.509684558,0.527781789
2.09,0.492566082,0.510723847,0.529550972
2.1,0.493737118,0.511852041,0.53063159
2.11,0.495199862,0.513159738,0.531770982
2.12,0.495921439,0.514299169,0.533357935
2.13,0.497127656,0.515514539,0.534581484
2.14,0.497981833,0.516417353,0.535535364
2.15,0.499301791,0.517701671,0.536779608
2.16,0.500174714,0.518994154,0.53852169
2.17,0.501351162,0.520135489,0.539623616
2.18,0.502453759,0.521322184,0.540899166
2.19,0.503360408,0.522446416,0.542256112
2.2,0.504470851,0.523737945,0.543740901
2.21,0.505638749,0.525006541,0.545116189
2.22,0.506535532,0.525875194,0.545953248
2.23,0.507644551,0.527188312,0.547484487
2.24,0.508750765,0.5285233,0.549064292
2.25,0.510377283,0.530134735,0.550657026
2.26,0.511638068,0.531389311,0.551903029
2.27,0.512286816,0.532378696,0.55325858
2.28,0.51313688,0.533430606,0.554526915
2.29,0.514625802,0.534766508,0.555695453
2.3,0.515131645,0.535798904,0.557295341
2.31,0.516437963,0.537334435,0.559076434
2.32,0.517343515,0.538307216,0.560120404
2.33,0.518711319,0.539691027,0.561519277
2.34,0.520027338,0.541118505,0.563065083
2.35,0.520353617,0.542079785,0.564713079
2.36,0.522022219,0.543389713,0.565631825
2.37,0.523097857,0.544828461,0.567461802
2.38,0.524224815,0.545907114,0.568486208
2.39,0.525803909,0.547440477,0.569967378
2.4,0.526258443,0.548614932,0.571921168
2.41,0.527754505,0.550024024,0.573233244
2.42,0.529045511,0.551174089,0.574228246
2.43,0.529980245,0.552473354,0.575921102
2.44,0.531027713,0.553614302,0.577161582
2.45,0.532319376,0.555210098,0.579085165
2.46,0.533125256,0.556373263,0.580635046
2.47,0.534026945,0.557736578,0.582498866
2.48,0.535571835,0.559055922,0.583569754
2.49,0.536774242,0.560607579,0.585499141
2.5,0.537504425,0.561389416,0.586335781
2.51,0.538808644,0.563045474,0.588372531
2.52,0.5403361,0.56449128,0.589726293
2.53,0.541061662,0.565637401,0.591329404
2.54,0.541756113,0.566753536,0.592904376
2.55,0.543230647,0.568566665,0.595084344
2.56,0.544677685,0.569750304,0.595977066
2.57,0.545495682,0.570982733,0.59766061
2.58,0.547099358,0.572695523,0.599489209
2.59,0.547962161,0.573787918,0.600830857
2.6,0.548945082,0.574916481,0.602116624
2.61,0.549734396,0.57630202,0.604153608
2.62,0.551207912,0.577661739,0.605385152
2.63,0.552393448,0.57926507,0.607443885
2.64,0.553906598,0.58066995,0.60872644
2.65,0.554704272,0.581784968,0.610187746
2.66,0.555833617,0.583607725,0.61276966
2.67,0.557159782,0.584521536,0.613227008
2.68,0.5584771,0.586361605,0.61563837
2.69,0.559284175,0.587337519,0.616798001
2.7,0.560232871,0.588630082,0.618466699
2.71,0.561648722,0.590413514,0.620651492
2.72,0.562720275,0.591681354,0.622132949
2.73,0.564606228,0.593550424,0.623978427
2.74,0.565105766,0.594408775,0.625231263
2.75,0.566134077,0.595808189,0.62703768
2.76,0.567295337,0.597178703,0.628636233
2.77,0.568220615,0.598256922,0.629880957
2.78,0.569579916,0.600024277,0.632095906
2.79,0.570416828,0.601322353,0.633902357
2.8,0.571956991,0.602912518,0.635543424
2.81,0.573106842,0.604234233,0.63705226
2.82,0.57465907,0.605687081,0.638390412
2.83,0.575286333,0.60717564,0.640832636
2.84,0.576643048,0.608766599,0.642679685
2.85,0.577777041,0.609905149,0.643819785
2.86,0.579371586,0.611421229,0.645243792
2.87,0.580101831,0.612680605,0.647089018
2.88,0.58113719,0.614293881,0.649342322
2.89,0.582391571,0.61555435,0.650605496
2.9,0.583687306,0.617026055,0.652269029
2.91,0.585054204,0.618815487,0.654525007
2.92,0.586242434,0.620182805,0.656088147
2.93,0.587170708,0.621647672,0.658149025
2.94,0.588596731,0.622961992,0.65933367
2.95,0.589460119,0.62427151,0.661138736
2.96,0.590371833,0.625715251,0.66317455
2.97,0.591809016,0.627267279,0.664850026
2.98,0.592815086,0.628792698,0.66695377
2.99,0.594361787,0.630425805,0.668678074
3,0.595449531,0.631469495,0.669668382
3.01,0.5959642,0.632846299,0.6720109
3.02,0.597576515,0.634540767,0.673791514
3.03,0.598621582,0.635642034,0.674951936
3.04,0.599968982,0.637337552,0.677033592
3.05,0.601227251,0.638666971,0.678438143
3.06,0.602293846,0.64021259,0.680518593
3.07,0.603086075,0.64129561,0.681925974
3.08,0.604772275,0.643320542,0.684325882
3.09,0.605787703,0.6446043,0.68590812
3.1,0.606895798,0.645999865,0.687623521
3.11,0.608195717,0.647704378,0.689779539
3.12,0.608694995,0.648665,0.691259639
3.13,0.610510108,0.650387805,0.692870259
3.14,0.61161249,0.651868302,0.694773717
3.15,0.612426996,0.653127533,0.696532937
3.16,0.613937057,0.654721212,0.698214679
3.17,0.61488633,0.656010217,0.699884489
3.18,0.6160216,0.657482976,0.701734914
3.19,0.617612687,0.658867446,0.702877906
3.2,0.618565413,0.660408926,0.705082988
3.21,0.61991317,0.662000943,0.706946183
3.22,0.62083604,0.663056828,0.708148897
3.23,0.621641257,0.664419007,0.710140473
3.24,0.623464019,0.666275367,0.712026438
3.25,0.62339905,0.667080384,0.713822453
3.26,0.625260869,0.668855757,0.7154902
3.27,0.626969682,0.670517849,0.717090793
3.28,0.627852888,0.67180856,0.718841547
3.29,0.628678374,0.673033738,0.720518521
3.3,0.63002602,0.674726936,0.722599422
3.31,0.631245612,0.675964805,0.72385203
3.32,0.632319859,0.677491225,0.725889523
3.33,0.633146803,0.678545368,0.727199149
3.34,0.634520764,0.680361445,0.729513867
3.35,0.635973874,0.681868954,0.731076054
3.36,0.636510722,0.682873159,0.732612562
3.37,0.638098361,0.684695125,0.734694592
3.38,0.638927318,0.685895145,0.736315598
3.39,0.640350681,0.687675025,0.738496818
3.4,0.641605738,0.688734436,0.739324939
3.41,0.642732453,0.690355517,0.741507198
3.42,0.643826597,0.69155648,0.742824802
3.43,0.644877506,0.692901378,0.744501576
3.44,0.645934949,0.694441691,0.746591067
3.45,0.647633227,0.695934756,0.747838692
3.46,0.648741834,0.697434371,0.749781617
3.47,0.64966542,0.698762847,0.751570732
3.48,0.650539138,0.699945715,0.75310458
3.49,0.651590911,0.701534124,0.755305391
3.5,0.652788163,0.702603755,0.756220877
3.51,0.654498194,0.704357414,0.758014875
3.52,0.654874181,0.705363202,0.759744789
3.53,0.656501273,0.707149838,0.7617059
3.54,0.657702047,0.708440336,0.76309282
3.55,0.658366688,0.709534497,0.764679033
3.56,0.659497748,0.710856991,0.766215902
3.57,0.660787882,0.712656506,0.768596565
3.58,0.661714017,0.713690337,0.769749292
3.59,0.662869257,0.715265099,0.771802519
3.6,0.664132921,0.716628187,0.773272852
3.61,0.665516818,0.718106849,0.774852615
3.62,0.665984633,0.718838434,0.775886812
3.63,0.667324109,0.720480424,0.777870955
3.64,0.668677249,0.722011966,0.779600743
3.65,0.669767198,0.723415224,0.78136043
3.66,0.671580204,0.72496477,0.782592926
3.67,0.672139507,0.725952941,0.784074834
3.68,0.673249919,0.72716596,0.785399773
3.69,0.673843178,0.72837099,0.787311228
3.7,0.675532359,0.729932539,0.78871353
3.71,0.676343984,0.731346098,0.790821132
3.72,0.677759645,0.732752516,0.792207464
3.73,0.678319825,0.733762696,0.793737222
3.74,0.679459698,0.73496303,0.795000288
3.75,0.681360419,0.736742721,0.796626605
3.76,0.681903034,0.737905966,0.798508273
3.77,0.682692336,0.738798463,0.799515596
3.78,0.684330684,0.740490823,0.801259788
3.79,0.685358293,0.741950076,0.803214788
3.8,0.686535549,0.743119618,0.804367329
3.81,0.68758033,0.74450081,0.806133381
3.82,0.688855714,0.745736285,0.80731363
3.83,0.690161223,0.747167461,0.808882326
3.84,0.690609744,0.748354334,0.810927177
3.85,0.691759175,0.749414622,0.811875427
3.86,0.69273793,0.750757765,0.813637016
3.87,0.693896569,0.751618656,0.814142378
3.88,0.695242486,0.753540994,0.816728036
3.89,0.696243748,0.754600724,0.817849001
3.9,0.69708691,0.755565899,0.818950722
3.91,0.698446215,0.757193447,0.820881985
3.92,0.699289044,0.758188723,0.822049401
3.93,0.700062329,0.75929786,0.823545585
3.94,0.701355878,0.760616389,0.82488407
3.95,0.702711291,0.762371389,0.827096622
3.96,0.703801046,0.76314141,0.827485005
3.97,0.70429651,0.764220084,0.829242127
3.98,0.706031428,0.765633859,0.830267866
3.99,0.706513145,0.766615345,0.831830365
4,0.707740673,0.767785909,0.832925426
4.01,0.708292302,0.76871602,0.834294427
4.02,0.710001841,0.770562033,0.836287755
4.03,0.710856624,0.771486983,0.837288624
4.04,0.712208525,0.772970312,0.838915966
4.05,0.712713299,0.773796436,0.840114707
4.06,0.714014662,0.775104979,0.841422116
4.07,0.715606765,0.776671362,0.842946762
4.08,0.716165062,0.777303064,0.843660332
4.09,0.717016596,0.778622007,0.845520499
4.1,0.717755689,0.779574908,0.846718522
4.11,0.719397483,0.781056106,0.84799941
4.12,0.719937,0.781744867,0.848859049
4.13,0.721528303,0.78312188,0.84997342
4.14,0.721599255,0.784132584,0.852085012
4.15,0.72326433,0.785695345,0.853515305
4.16,0.72419522,0.786503981,0.854173701
4.17,0.725360484,0.787995336,0.856038704
4.18,0.726311216,0.788924013,0.856934445
4.19,0.727348297,0.78977485,0.857559324
4.2,0.728279692,0.790992421,0.859105392
4.21,0.729979071,0.792449367,0.860265758
4.22,0.730815781,0.793651014,0.861888793
4.23,0.730968442,0.794100928,0.862686058
4.24,0.732088591,0.795359193,0.864097945
4.25,0.733551056,0.796790103,0.865480956
4.26,0.734349274,0.79740953,0.865884915
4.27,0.735921959,0.799041257,0.867574235
4.28,0.736584036,0.800117788,0.869131618
4.29,0.737123587,0.800677983,0.869712005
4.3,0.737970952,0.80168903,0.870908672
4.31,0.739355723,0.80302367,0.872174238
4.32,0.739320756,0.80368764,0.873658446
4.33,0.740908316,0.804877084,0.874368806
4.34,0.742337797,0.806055003,0.875241258
4.35,0.743202263,0.807018969,0.876315437
4.36,0.744238696,0.808261049,0.877790858
4.37,0.745257409,0.809443774,0.879158281
4.38,0.746429157,0.810371284,0.87979095
4.39,0.747000362,0.811250732,0.881027351
4.4,0.748058857,0.812238458,0.881924339
4.41,0.748564718,0.812892742,0.882748804
4.42,0.748922444,0.8136146,0.883894885
4.43,0.750550401,0.814976802,0.884933494
4.44,0.751168253,0.815893974,0.8861969
4.45,0.752293386,0.81718709,0.887678599
4.46,0.753532308,0.818187108,0.888389437
4.47,0.754128944,0.818799737,0.889016414
4.48,0.755461509,0.820048156,0.890156506
4.49,0.756192271,0.82089892,0.891142454
4.5,0.757272562,0.821994524,0.89224809
4.51,0.758049853,0.822931598,0.893366592
4.52,0.758421325,0.823516412,0.894198591
4.53,0.760668553,0.824977928,0.894724225
4.54,0.76107021,0.825969,0.896401909
4.55,0.76179094,0.826603947,0.89693123
4.56,0.762617163,0.827655461,0.898240422
4.57,0.763895179,0.828768118,0.899150319
4.58,0.764353816,0.829278705,0.899718372
4.59,0.765436903,0.830368125,0.900807395
4.6,0.765979339,0.831094246,0.901744486
4.61,0.767099776,0.832107479,0.902624245
4.62,0.767735164,0.832974618,0.903757892
4.63,0.769116073,0.834023629,0.90440889
4.64,0.769544817,0.834573545,0.905097386
4.65,0.770368817,0.835644945,0.906452155
4.66,0.771645103,0.836706649,0.907253884
4.67,0.771594624,0.837112451,0.908193543
4.68,0.772977957,0.837959394,0.908403583
4.69,0.773619726,0.838822769,0.909521325
4.7,0.774919763,0.839885062,0.910296719
4.71,0.775500308,0.84059767,0.911159461
4.72,0.776410777,0.841425987,0.911885451
4.73,0.77695934,0.842058184,0.912611445
4.74,0.778210807,0.843466,0.914193027
4.75,0.779122623,0.844120998,0.914541869
4.76,0.779570852,0.844987594,0.915893703
4.77,0.781015297,0.845928897,0.916237751
4.78,0.781548314,0.846643818,0.917161156
