flow depth [m],16th percentile vulnerability,median vulnerability,84th percentile vulnerability
0.000001,0.00356144,0.003678509,0.003799427
0.01,0.003613173,0.003728717,0.003847955
0.02,0.003792456,0.003935528,0.004083998
0.03,0.004095087,0.004279871,0.004472993
0.04,0.004495014,0.004722896,0.004962331
0.05,0.004971394,0.005252628,0.005549771
0.06,0.005526271,0.005873815,0.006243216
0.07,0.006144847,0.006567404,0.007019019
0.08,0.00686034,0.007356976,0.007889564
0.09,0.007632002,0.008191196,0.008791362
0.1,0.008443361,0.009100685,0.009809183
0.11,0.009369779,0.01008228,0.01084896
0.12,0.010329191,0.011147644,0.012030948
0.13,0.011400014,0.012296251,0.013262946
0.14,0.01251097,0.013504338,0.014576578
0.15,0.013664196,0.014764484,0.015953372
0.16,0.014962349,0.016132971,0.01739518
0.17,0.016272688,0.01756883,0.01896821
0.18,0.017643983,0.019006392,0.020474002
0.19,0.019021989,0.020517278,0.022130108
0.2,0.02052206,0.022095024,0.023788551
0.21,0.021936805,0.023640111,0.025475672
0.22,0.023665527,0.025482608,0.027439208
0.23,0.025232636,0.027162237,0.029239398
0.24,0.026931478,0.028977195,0.031178304
0.25,0.028653129,0.030846869,0.033208567
0.26,0.030502821,0.032718149,0.035094369
0.27,0.032308661,0.03469082,0.037248619
0.28,0.034226821,0.036682133,0.039313581
0.29,0.035995176,0.038596123,0.04138501
0.3,0.037877698,0.040697722,0.043727699
0.31,0.039971489,0.042850746,0.045937404
0.32,0.041880896,0.044870016,0.048072476
0.33,0.043919512,0.047086336,0.050481505
0.34,0.046148786,0.049279106,0.052621757
0.35,0.048314368,0.051579449,0.055065184
0.36,0.050369566,0.053755169,0.057368336
0.37,0.052555994,0.05608302,0.059846743
0.38,0.054734438,0.058418275,0.062350047
0.39,0.056931883,0.06066958,0.064652665
0.4,0.059204388,0.063057106,0.067160539
0.41,0.061525457,0.065549596,0.069836937
0.42,0.063828448,0.068071526,0.072596669
0.43,0.066071641,0.070293966,0.07478612
0.44,0.068519189,0.072857172,0.077469795
0.45,0.070780174,0.075348624,0.080211943
0.46,0.073275032,0.077952947,0.082929502
0.47,0.075651122,0.080382418,0.085409615
0.48,0.07804907,0.083012291,0.088291127
0.49,0.080790958,0.08571336,0.090935673
0.5,0.083172166,0.088212593,0.093558481
0.51,0.085671341,0.090849416,0.09634046
0.52,0.088204545,0.093445999,0.098998922
0.53,0.090655338,0.096090078,0.101850627
0.54,0.093082617,0.098669387,0.104591472
0.55,0.095771761,0.101470937,0.10750926
0.56,0.098187702,0.104051419,0.110265315
0.57,0.100901182,0.106912978,0.113282962
0.58,0.103616585,0.109685024,0.116108868
0.59,0.105979065,0.112056623,0.11848271
0.6,0.108653411,0.11507177,0.121869272
0.61,0.111522659,0.117719427,0.124260519
0.62,0.113986351,0.120580212,0.127555513
0.63,0.116609798,0.123256345,0.130281732
0.64,0.119370513,0.126075726,0.13315758
0.65,0.122283683,0.129126196,0.136351589
0.66,0.124779159,0.131726187,0.139059989
0.67,0.127521826,0.134498287,0.141856416
0.68,0.130369149,0.137440065,0.14489449
0.69,0.132795619,0.140149248,0.147910088
0.7,0.135773587,0.143035182,0.150685149
0.71,0.138699961,0.146099153,0.153893067
0.72,0.141459707,0.148999303,0.156940749
0.73,0.143952918,0.151758267,0.159986834
0.74,0.146903076,0.154641354,0.162787254
0.75,0.149480962,0.157456528,0.165857631
0.76,0.15228223,0.160395762,0.16894158
0.77,0.155292722,0.163554135,0.172255047
0.78,0.157868343,0.166043705,0.174642436
0.79,0.16066978,0.169006657,0.177776121
0.8,0.163308633,0.171778172,0.180686961
0.81,0.166457333,0.175047561,0.184081098
0.82,0.169552476,0.178104283,0.187087421
0.83,0.171926626,0.180729448,0.189982983
0.84,0.174934206,0.184056642,0.193654793
0.85,0.177302626,0.186411575,0.195988498
0.86,0.180749132,0.189755693,0.199211044
0.87,0.182851904,0.192285518,0.202205827
0.88,0.186622631,0.195751991,0.205327948
0.89,0.189176968,0.198566758,0.20842261
0.9,0.191899487,0.201410506,0.211392915
0.91,0.194992001,0.204410158,0.214283214
0.92,0.197660813,0.207367826,0.217551544
0.93,0.200744441,0.210575872,0.220888796
0.94,0.203038588,0.212890941,0.223221375
0.95,0.206459461,0.216257212,0.226519926
0.96,0.209184315,0.219008832,0.229294766
0.97,0.211639389,0.221847306,0.232547578
0.98,0.215035317,0.225016512,0.235461
0.99,0.217637861,0.227980431,0.238814499
1,0.221185583,0.231259013,0.241791216
1.01,0.222878428,0.233510406,0.244649562
1.02,0.226556053,0.236971353,0.247865469
1.03,0.229152098,0.239838817,0.251023922
1.04,0.232153399,0.242471703,0.253248616
1.05,0.235000471,0.245422596,0.256306936
1.06,0.237580411,0.248445078,0.25980659
1.07,0.240481485,0.251399613,0.262813436
1.08,0.243399875,0.25436546,0.265825062
1.09,0.246065888,0.257232926,0.268906749
1.1,0.249365239,0.260195954,0.271497081
1.11,0.251922949,0.26321869,0.27502091
1.12,0.254856151,0.266056843,0.277749795
1.13,0.257859961,0.269180195,0.280997395
1.14,0.260442392,0.271827836,0.283711005
1.15,0.263194337,0.274319761,0.285915466
1.16,0.265887856,0.277420963,0.289454329
1.17,0.269009848,0.280927469,0.293373062
1.18,0.271528536,0.283399635,0.295789731
1.19,0.275163349,0.286715527,0.2987527
1.2,0.27755222,0.289210125,0.301357692
1.21,0.280312057,0.292498937,0.305215656
1.22,0.283426697,0.295379911,0.307837239
1.23,0.285402487,0.297752847,0.310637651
1.24,0.288236701,0.30060086,0.313495391
1.25,0.290953759,0.303075904,0.315703099
1.26,0.294512099,0.307115336,0.32025791
1.27,0.296953014,0.309132155,0.321810807
1.28,0.299426719,0.31202796,0.32515952
1.29,0.302494923,0.31518421,0.328405797
1.3,0.305154877,0.317772453,0.330911742
1.31,0.307954747,0.320492914,0.333541563
1.32,0.310835886,0.323373233,0.336416265
1.33,0.314273838,0.32688984,0.340012291
1.34,0.31673642,0.329786277,0.343373801
1.35,0.31831922,0.331377958,0.344972419
1.36,0.321742598,0.334726733,0.348234851
1.37,0.323820525,0.336986272,0.350687306
1.38,0.327339882,0.340746236,0.354701653
1.39,0.33027039,0.343244522,0.356728321
1.4,0.332516181,0.345691001,0.359387829
1.41,0.33542495,0.348835878,0.362783001
1.42,0.338015341,0.35133126,0.365171753
1.43,0.340980885,0.354061662,0.367644248
1.44,0.344146814,0.35711886,0.370579865
1.45,0.346883596,0.360048327,0.373712679
1.46,0.348798539,0.362290014,0.376303337
1.47,0.351877022,0.364950854,0.378510438
1.48,0.354362364,0.367867724,0.381887796
1.49,0.356423264,0.370199687,0.384508593
1.5,0.359382492,0.373055975,0.387249696
1.51,0.362088157,0.375862022,0.390159847
1.52,0.364078295,0.37774747,0.391929848
1.53,0.367436257,0.381064738,0.395198709
1.54,0.369757291,0.383650045,0.398064787
1.55,0.372608136,0.386510656,0.400931898
1.56,0.37497009,0.388897199,0.403341587
1.57,0.377877401,0.391742175,0.406115665
1.58,0.379622839,0.393930937,0.408778312
1.59,0.38304824,0.397281884,0.412044435
1.6,0.385865638,0.399815325,0.414269316
1.61,0.388088547,0.402037575,0.416487973
1.62,0.390698118,0.404567183,0.418928574
1.63,0.393122649,0.407229253,0.42184205
1.64,0.395866073,0.410098827,0.424843299
1.65,0.397044323,0.411753639,0.427007892
1.66,0.400633158,0.415081374,0.430050643
1.67,0.402722664,0.417308181,0.432421946
1.68,0.405637526,0.420379032,0.435656267
1.69,0.407853255,0.42200411,0.436645942
1.7,0.409481302,0.424138815,0.439320999
1.71,0.412891656,0.427585535,0.442802336
1.72,0.414218475,0.428935581,0.444175583
1.73,0.417996379,0.432274671,0.447040694
1.74,0.420067417,0.434755102,0.449956343
1.75,0.422394254,0.437338131,0.452810707
1.76,0.424834444,0.439508529,0.454689467
1.77,0.427241182,0.441379975,0.455986667
1.78,0.429927607,0.444817952,0.460224018
1.79,0.432122305,0.446971581,0.46233113
1.8,0.434576497,0.449114065,0.464137947
1.81,0.437569989,0.45180693,0.466507091
1.82,0.438630398,0.453822993,0.469541806
1.83,0.441628954,0.456162468,0.471174264
1.84,0.44448595,0.459120187,0.47423624
1.85,0.446482668,0.461291865,0.476592263
1.86,0.448074012,0.462854122,0.478121767
1.87,0.451157679,0.465773683,0.480863197
1.88,0.45299997,0.467893222,0.483276119
1.89,0.455772718,0.470782006,0.486285573
1.9,0.457528699,0.472421361,0.487798782
1.91,0.459512916,0.47482947,0.490656559
1.92,0.46234605,0.477440606,0.493027965
1.93,0.464465825,0.479612973,0.495254099
1.94,0.46703735,0.481471878,0.496352529
1.95,0.469179545,0.484601186,0.500529727
1.96,0.471139071,0.486150864,0.501640975
1.97,0.472557597,0.487543016,0.503003642
1.98,0.475772798,0.490822402,0.506348053
1.99,0.476609415,0.492083642,0.508060275
2,0.4799955,0.495174578,0.510833669
2.01,0.481754927,0.49682258,0.512361498
2.02,0.484123684,0.499199752,0.514745303
2.03,0.487090442,0.501401095,0.516132194
2.04,0.488519637,0.50374975,0.519454677
2.05,0.491010148,0.505667256,0.520761892
2.06,0.492794822,0.508062368,0.523802925
2.07,0.494458919,0.509640447,0.525288099
2.08,0.496371148,0.51178595,0.527679459
2.09,0.499658671,0.514869248,0.530542865
2.1,0.501504688,0.516234523,0.531396992
2.11,0.503062976,0.518169173,0.533728985
2.12,0.505400837,0.520498025,0.536046191
2.13,0.507394759,0.522674581,0.538414542
2.14,0.508593061,0.52392686,0.539722963
2.15,0.51116741,0.526640652,0.542582274
2.16,0.513551208,0.528888748,0.544684353
2.17,0.51599524,0.530947076,0.546332167
2.18,0.517656567,0.532871306,0.548533231
2.19,0.518929533,0.534339267,0.550206597
2.2,0.521389928,0.536592716,0.552238789
2.21,0.52328036,0.538498719,0.554159667
2.22,0.525210152,0.540284864,0.555792254
2.23,0.527297934,0.542453142,0.55804393
2.24,0.528614868,0.544185202,0.56021416
2.25,0.530429248,0.545930117,0.561883973
2.26,0.533868284,0.548771617,0.564090987
2.27,0.53511673,0.550459956,0.566243114
2.28,0.536560204,0.551873915,0.567624688
2.29,0.539401209,0.554076814,0.569151701
2.3,0.540142719,0.555653831,0.57161037
2.31,0.542688919,0.558286625,0.574332633
2.32,0.544011665,0.55957649,0.575586645
2.33,0.547009664,0.561863936,0.577121582
2.34,0.548682765,0.563966682,0.579676343
2.35,0.550694769,0.565583767,0.580875315
2.36,0.551550852,0.567032013,0.582947706
2.37,0.553044635,0.568490105,0.584366936
2.38,0.555459252,0.570710145,0.586379772
2.39,0.557183127,0.572649323,0.588544827
2.4,0.55902338,0.574423551,0.590247972
2.41,0.561440163,0.57656004,0.592087103
2.42,0.562227485,0.577741295,0.593683185
2.43,0.564021191,0.579709106,0.595833372
2.44,0.566217169,0.581609809,0.597420898
2.45,0.567488256,0.582912957,0.598756912
2.46,0.56893085,0.584327163,0.60014013
2.47,0.571355723,0.586464875,0.60197358
2.48,0.573666664,0.588459836,0.60363448
2.49,0.574530164,0.58959549,0.60505586
2.5,0.57716014,0.592087343,0.607400611
2.51,0.578012432,0.593276658,0.608943983
2.52,0.579366174,0.594524788,0.610080013
2.53,0.58243999,0.597370751,0.61268426
2.54,0.583289264,0.598619514,0.614352679
2.55,0.58491619,0.600277737,0.616042723
2.56,0.587052756,0.601878627,0.617078921
2.57,0.588098557,0.603461814,0.619226415
2.58,0.58990904,0.605379724,0.621256135
2.59,0.591296968,0.606015929,0.621101285
2.6,0.593178029,0.608467722,0.62415152
2.61,0.595325619,0.610364479,0.625783245
2.62,0.596173991,0.611276217,0.626761012
2.63,0.597430241,0.612687823,0.628335064
2.64,0.599431242,0.614463444,0.629872615
2.65,0.601078779,0.616233894,0.631771118
2.66,0.602348658,0.617531729,0.63309751
2.67,0.604492945,0.619401914,0.634678591
2.68,0.605884166,0.621092844,0.636683284
2.69,0.607486006,0.622689631,0.638273758
2.7,0.608808164,0.623909804,0.639386045
2.71,0.610373891,0.625178693,0.64034259
2.72,0.61177124,0.626313568,0.64120158
2.73,0.612795207,0.628013675,0.643610086
2.74,0.61542232,0.630150924,0.645232021
2.75,0.615570058,0.630992014,0.646800338
2.76,0.618232344,0.63324402,0.648620203
2.77,0.619196622,0.634156814,0.649478455
2.78,0.620695446,0.635544886,0.650749583
2.79,0.622460959,0.637432225,0.652763576
2.8,0.62392495,0.638776285,0.653981127
2.81,0.626145337,0.640765519,0.655727074
2.82,0.62680844,0.641566152,0.656671323
2.83,0.627836116,0.642720542,0.65795784
2.84,0.629614272,0.644418793,0.659571423
2.85,0.630820871,0.645901592,0.66134284
2.86,0.632344833,0.646988341,0.661970956
2.87,0.633484479,0.648398782,0.663664216
2.88,0.635222349,0.650053767,0.665231476
2.89,0.636802795,0.651471036,0.666477149
2.9,0.637876948,0.652879595,0.6682351
2.91,0.639541793,0.654493803,0.669795379
2.92,0.641184002,0.655584262,0.670307935
2.93,0.642552642,0.65718206,0.672144556
2.94,0.643586232,0.658153509,0.67305051
2.95,0.644750901,0.659484528,0.674554842
2.96,0.646599787,0.661288672,0.676311246
2.97,0.647721191,0.662299683,0.677206298
2.98,0.648806961,0.663461745,0.67844754
2.99,0.650923216,0.665081916,0.679548592
3,0.652423113,0.666420728,0.68071866
3.01,0.653531763,0.667695184,0.682165558
3.02,0.654195208,0.668902632,0.683940705
3.03,0.655922627,0.670276351,0.68494418
3.04,0.657542244,0.67154506,0.685846076
3.05,0.658721538,0.673077142,0.687745599
3.06,0.658869255,0.673560393,0.688579107
3.07,0.660370631,0.675022514,0.689999484
3.08,0.66216639,0.67655196,0.691250056
3.09,0.663270768,0.677361821,0.691752236
3.1,0.664422098,0.678711583,0.693308386
3.11,0.665685351,0.679901442,0.694421126
3.12,0.666582335,0.680971036,0.695670328
3.13,0.668280182,0.682517124,0.697057369
3.14,0.669265757,0.68354425,0.698127368
3.15,0.670061176,0.68460979,0.699474289
3.16,0.672110823,0.686390829,0.700974235
3.17,0.672599464,0.687433571,0.702594843
3.18,0.674116672,0.688356277,0.70289667
3.19,0.675739923,0.689841208,0.704236756
3.2,0.675938136,0.690352714,0.705074687
3.21,0.677152154,0.691662243,0.706483255
3.22,0.679166389,0.693378276,0.707887553
3.23,0.680214424,0.694258941,0.708593437
3.24,0.680998809,0.695184839,0.709666382
3.25,0.682914826,0.696827535,0.711023682
3.26,0.684093692,0.69792314,0.71203216
3.27,0.684750407,0.698540498,0.712608304
3.28,0.685100853,0.699774331,0.714762085
3.29,0.687041067,0.701117651,0.715482647
3.3,0.687412009,0.701555765,0.715990534
3.31,0.68916838,0.703353762,0.717831127
3.32,0.690372935,0.704438059,0.718789733
3.33,0.691488984,0.705374924,0.719539711
3.34,0.692648032,0.706585802,0.720804035
3.35,0.69355117,0.707258835,0.721237426
3.36,0.69438756,0.708393491,0.722681924
3.37,0.695982657,0.709484089,0.723247437
3.38,0.697062961,0.710688718,0.724580823
3.39,0.698113587,0.711877559,0.725912901
3.4,0.698520273,0.71259836,0.726960178
3.41,0.700255361,0.714142959,0.728305979
3.42,0.701556661,0.714904117,0.728505516
3.43,0.70170791,0.715585421,0.729737384
3.44,0.702893471,0.71675955,0.730899167
3.45,0.703867329,0.717775989,0.731959489
3.46,0.704613692,0.718438621,0.732534803
3.47,0.706236552,0.719804956,0.733634039
3.48,0.707001412,0.720514122,0.734285095
3.49,0.707953351,0.721392384,0.735086528
3.5,0.709703123,0.723420147,0.73740229
3.51,0.709453517,0.723440537,0.737703314
3.52,0.711633489,0.725220391,0.739066702
3.53,0.712368398,0.725832375,0.739550826
3.54,0.71325065,0.726733553,0.740471329
3.55,0.714755362,0.727823713,0.741131002
3.56,0.715155787,0.728924861,0.742959035
3.57,0.716775729,0.730017098,0.743503081
3.58,0.717016703,0.7303856,0.744003763
3.59,0.717292911,0.731028703,0.745027527
3.6,0.719518671,0.732929226,0.746589731
3.61,0.719183297,0.732863035,0.746802979
3.62,0.721463924,0.734688824,0.748156145
3.63,0.722086423,0.735510538,0.749184216
3.64,0.723279828,0.736303817,0.749562328
3.65,0.722999892,0.73638663,0.750021232
3.66,0.724736256,0.738190359,0.751894226
3.67,0.725629288,0.7388661,0.752344376
3.68,0.726247259,0.739664318,0.75332925
3.69,0.727170575,0.740386611,0.753842843
3.7,0.727787123,0.741272492,0.755007735
3.71,0.728821729,0.74226322,0.75595261
3.72,0.730691446,0.743609212,0.75675535
3.73,0.731355349,0.744300643,0.757475075
3.74,0.732295551,0.745371913,0.758681775
3.75,0.732935188,0.746008369,0.759314733
3.76,0.733683364,0.746575569,0.759694314
3.77,0.734396011,0.747728513,0.761303059
3.78,0.736044151,0.748782948,0.761742217
3.79,0.736904556,0.749529005,0.762369733
3.8,0.737664643,0.750487366,0.763532985
3.81,0.738134031,0.751017032,0.764124886
3.82,0.739085955,0.752134449,0.765413313
3.83,0.740237101,0.752920289,0.76582079
3.84,0.740053573,0.753493865,0.767178249
3.85,0.741684962,0.754745883,0.768036804
3.86,0.742040996,0.754900524,0.767982907
3.87,0.743385682,0.755959169,0.768745322
3.88,0.74438787,0.757018162,0.769862756
3.89,0.745519231,0.758162805,0.771020806
3.9,0.745677453,0.758433186,0.771407122
3.91,0.746784736,0.759371867,0.772171157
3.92,0.74762329,0.760171371,0.772930059
3.93,0.748858912,0.761393026,0.774136931
3.94,0.748829336,0.761544612,0.774475795
3.95,0.749925493,0.762529277,0.775344889
3.96,0.750567656,0.762952367,0.775541432
3.97,0.751150072,0.763810338,0.776683986
3.98,0.752609574,0.76497851,0.777550727
3.99,0.752171863,0.765286385,0.778629567
4,0.75334436,0.765923943,0.778713585
4.01,0.754165584,0.766913881,0.779877673
4.02,0.755038772,0.767384047,0.779931173
4.03,0.756267529,0.768642342,0.781219644
4.04,0.756237248,0.769026925,0.782032904
4.05,0.757485802,0.77008526,0.782894289
4.06,0.758312945,0.770699561,0.783288504
4.07,0.759176163,0.771765431,0.784563464
4.08,0.759862811,0.772181155,0.784699196
4.09,0.760400391,0.772877174,0.785558677
4.1,0.761455974,0.773567797,0.785872272
4.11,0.761833973,0.774330669,0.787032354
4.12,0.762963475,0.775315231,0.787866951
4.13,0.763789355,0.775804353,0.788008355
4.14,0.764013032,0.776313029,0.788811047
4.15,0.764679107,0.77705491,0.789631007
4.16,0.765364554,0.777733529,0.790302397
4.17,0.766742192,0.778803476,0.791054491
4.18,0.767116021,0.779488356,0.792060237
4.19,0.768180685,0.780253755,0.79251657
4.2,0.769115574,0.781373311,0.793826405
4.21,0.768944596,0.781086768,0.793420674
4.22,0.769877684,0.782095897,0.794508017
4.23,0.77080732,0.782787755,0.7949544
4.24,0.77115429,0.783214221,0.795462755
4.25,0.771517542,0.783787356,0.796252303
4.26,0.77241855,0.784593552,0.796960459
4.27,0.773390097,0.785603198,0.798009164
4.28,0.774205163,0.786142085,0.798263054
4.29,0.774756003,0.786754276,0.798938361
4.3,0.775839626,0.787610216,0.799559382
4.31,0.776073799,0.788061633,0.80023464
4.32,0.776907633,0.788624073,0.800517206
4.33,0.777699725,0.78944524,0.801368147
4.34,0.778000199,0.789779429,0.801737001
4.35,0.77843217,0.790193513,0.802132558
4.36,0.779663682,0.791618781,0.803757196
4.37,0.780096774,0.791891424,0.803864403
4.38,0.780928407,0.792472782,0.804187815
4.39,0.781440816,0.793038128,0.804807554
4.4,0.782722774,0.793898844,0.805234491
4.41,0.782988096,0.79440316,0.805984642
4.42,0.783149704,0.795038441,0.807107658
4.43,0.7842814,0.795733217,0.807352251
4.44,0.784692782,0.796376483,0.808234149
4.45,0.784976333,0.796727083,0.808653737
4.46,0.785776887,0.797348258,0.809090029
4.47,0.786239223,0.79795402,0.809843366
4.48,0.78733816,0.798802793,0.810434365
4.49,0.787121319,0.798859741,0.81077322
4.5,0.788395393,0.799962123,0.811698552
4.51,0.789350381,0.800716627,0.81224654
4.52,0.789395231,0.800783271,0.812335598
4.53,0.790000072,0.801500286,0.813167912
4.54,0.791167228,0.802209945,0.813406792
4.55,0.791439777,0.802733869,0.814189131
4.56,0.7917961,0.803393043,0.81515984
4.57,0.792081605,0.803479223,0.815040847
4.58,0.793311809,0.804736791,0.816326311
4.59,0.793666051,0.80500221,0.816500288
4.6,0.794182027,0.805766486,0.817519924
4.61,0.794877152,0.806166686,0.817616563
4.62,0.796034562,0.807071311,0.818261082
4.63,0.796052163,0.807309345,0.818725718
4.64,0.796641089,0.807710177,0.818933067
4.65,0.797235618,0.80855976,0.820044754
4.66,0.79789551,0.808906171,0.820068776
4.67,0.798502364,0.809551091,0.820752697
4.68,0.798727888,0.809715121,0.820853495
4.69,0.799279722,0.810260884,0.821392914
4.7,0.799362357,0.810882516,0.8225687
4.71,0.800203768,0.81167399,0.823308629
4.72,0.801120476,0.812215723,0.823464636
4.73,0.801267987,0.81239754,0.82368168
4.74,0.802624861,0.813823424,0.825178233
4.75,0.80320929,0.814152619,0.825245045
4.76,0.803609123,0.814392191,0.82531995
4.77,0.804219643,0.814889974,0.825701879
4.78,0.804022294,0.815157719,0.826447366
