flow depth [m],16th percentile vulnerability,median vulnerability,84th percentile vulnerability
0.000001,0.003562933,0.003679606,0.003800099
0.01,0.003601643,0.003720434,0.003843143
0.02,0.003718941,0.00384878,0.003983152
0.03,0.003883881,0.004028561,0.00417863
0.04,0.004110823,0.004280992,0.004458205
0.05,0.004386061,0.004595603,0.004815155
0.06,0.00473771,0.004981577,0.005237997
0.07,0.005149579,0.005444356,0.005756007
0.08,0.005627229,0.00597464,0.0063435
0.09,0.006183768,0.006598197,0.0070404
0.1,0.006814734,0.007302857,0.007825943
0.11,0.007542006,0.008097812,0.008694578
0.12,0.008350692,0.008981039,0.009658967
0.13,0.009238216,0.009967175,0.010753655
0.14,0.010238146,0.011036964,0.011898109
0.15,0.011330532,0.012242867,0.013228663
0.16,0.012507114,0.013509367,0.014591936
0.17,0.013757345,0.014867178,0.016066544
0.18,0.015190107,0.016401118,0.017708676
0.19,0.016696668,0.017999206,0.019403357
0.2,0.018252113,0.019651334,0.02115782
0.21,0.019956152,0.021474996,0.023109437
0.22,0.021613835,0.023237196,0.024982484
0.23,0.023497288,0.02526654,0.027169009
0.24,0.025419893,0.027278359,0.029272699
0.25,0.027341738,0.029382981,0.031576617
0.26,0.029295378,0.031470319,0.033806732
0.27,0.031483101,0.033789961,0.036265851
0.28,0.033791648,0.036201377,0.038782948
0.29,0.036038575,0.03855992,0.041257664
0.3,0.03821138,0.040909012,0.04379709
0.31,0.040398705,0.04328213,0.046371358
0.32,0.042819568,0.045870336,0.049138464
0.33,0.04533897,0.048476103,0.051830303
0.34,0.047651661,0.050864817,0.054294635
0.35,0.050269334,0.053623158,0.057200739
0.36,0.052840008,0.056306788,0.060001021
0.37,0.055115023,0.05873915,0.062601584
0.38,0.057580157,0.061320784,0.065304416
0.39,0.060336404,0.064327923,0.068583499
0.4,0.062980268,0.066882049,0.071025556
0.41,0.065689613,0.069857963,0.074290815
0.42,0.068294589,0.07270086,0.077391416
0.43,0.070908532,0.075359376,0.080089595
0.44,0.073676938,0.078141802,0.08287724
0.45,0.076116353,0.080626434,0.08540375
0.46,0.078815186,0.083586479,0.088646614
0.47,0.081427848,0.086329585,0.091526393
0.48,0.084230324,0.089251869,0.094572783
0.49,0.086606811,0.09168717,0.097065544
0.5,0.089367279,0.09463862,0.100220891
0.51,0.092428337,0.097693512,0.103258618
0.52,0.095236005,0.100637826,0.106346039
0.53,0.097802818,0.103440213,0.10940255
0.54,0.100216522,0.105945749,0.112002507
0.55,0.103136814,0.108920467,0.115028452
0.56,0.106033312,0.111818601,0.117919541
0.57,0.108463325,0.114525355,0.120926192
0.58,0.111522108,0.117552344,0.123908647
0.59,0.114106695,0.120291471,0.126811472
0.6,0.116590738,0.123001047,0.129763802
0.61,0.119538862,0.125859044,0.132513382
0.62,0.122180879,0.128816204,0.135811876
0.63,0.125214764,0.131801468,0.138734654
0.64,0.127809529,0.134554732,0.141655916
0.65,0.13030817,0.1371775,0.144408954
0.66,0.133048973,0.140009288,0.147333725
0.67,0.136151435,0.143085514,0.15037274
0.68,0.138641069,0.145923933,0.153589369
0.69,0.14124208,0.148582238,0.156303854
0.7,0.144285799,0.151559595,0.159200081
0.71,0.147004711,0.154423171,0.162215996
0.72,0.150193254,0.157546921,0.165260634
0.73,0.152741567,0.160244216,0.168115394
0.74,0.155564809,0.163201579,0.171213242
0.75,0.158099061,0.165918886,0.174125492
0.76,0.160686952,0.168724102,0.177163249
0.77,0.16381844,0.171818569,0.180209387
0.78,0.16637078,0.174442404,0.18290563
0.79,0.169486974,0.177737167,0.186388959
0.8,0.172431513,0.180413482,0.188764942
0.81,0.17464775,0.182994556,0.191740274
0.82,0.17735813,0.185993684,0.195049704
0.83,0.180457535,0.188946991,0.197835824
0.84,0.183008618,0.191873039,0.201166826
0.85,0.186024698,0.19483043,0.204052992
0.86,0.188813082,0.19773045,0.207068972
0.87,0.191696273,0.200601562,0.209920549
0.88,0.194152529,0.203182545,0.212632546
0.89,0.197747324,0.2066544,0.215962674
0.9,0.200213768,0.209442416,0.21909645
0.91,0.202617908,0.211968276,0.221750143
0.92,0.20607006,0.21534499,0.225037373
0.93,0.208335208,0.217484428,0.227035443
0.94,0.211443841,0.22112931,0.231258435
0.95,0.213773735,0.223522148,0.233715104
0.96,0.217066868,0.226839717,0.237052561
0.97,0.219645552,0.229231304,0.239235397
0.98,0.222321027,0.232324487,0.242778058
0.99,0.225600158,0.235380255,0.245584333
1,0.228111098,0.238350806,0.249050165
1.01,0.230738893,0.240776924,0.251251648
1.02,0.233561583,0.24388938,0.254673859
1.03,0.236821853,0.246892297,0.25739097
1.04,0.239731311,0.249859753,0.260416113
1.05,0.241941792,0.25258301,0.263692256
1.06,0.244719588,0.255406037,0.266559143
1.07,0.247567023,0.258167823,0.269222548
1.08,0.250493082,0.261543871,0.273082178
1.09,0.253316848,0.26422156,0.275595695
1.1,0.256123678,0.266796031,0.277913087
1.11,0.259449882,0.270406053,0.281824887
1.12,0.261967262,0.272695811,0.283863734
1.13,0.264210841,0.275215917,0.286679382
1.14,0.267966555,0.278957341,0.29039892
1.15,0.270698345,0.281650427,0.293045616
1.16,0.27332779,0.284766478,0.296683873
1.17,0.275779231,0.287051707,0.298784946
1.18,0.278810838,0.290155999,0.301962809
1.19,0.281333612,0.293133502,0.30542831
1.2,0.2841597,0.295725731,0.30776253
1.21,0.286891253,0.298698864,0.310992442
1.22,0.290055786,0.301380204,0.313146753
1.23,0.292525748,0.304330468,0.31661156
1.24,0.294883078,0.307030444,0.319678208
1.25,0.298006673,0.309786812,0.322032618
1.26,0.300261873,0.312238431,0.324692699
1.27,0.303392449,0.315653443,0.32840994
1.28,0.305682341,0.317967965,0.330747359
1.29,0.308710293,0.321066907,0.333918114
1.3,0.311809507,0.323670023,0.335981685
1.31,0.31406986,0.326444841,0.33930742
1.32,0.316507941,0.328940736,0.341861905
1.33,0.319689156,0.33172512,0.344214225
1.34,0.322398283,0.335049521,0.348197206
1.35,0.324458993,0.337114602,0.350263846
1.36,0.328032462,0.340497037,0.35343524
1.37,0.330987845,0.343611813,0.356717263
1.38,0.333039713,0.345466384,0.35835673
1.39,0.335238962,0.348183254,0.361627352
1.4,0.338240295,0.351363122,0.364995079
1.41,0.340783444,0.353697204,0.367100323
1.42,0.34332057,0.35615288,0.369464824
1.43,0.34610012,0.358946137,0.372268954
1.44,0.349236936,0.362165822,0.37557334
1.45,0.351268658,0.364327763,0.377872365
1.46,0.354851177,0.367602246,0.380811506
1.47,0.357150047,0.370281698,0.383896172
1.48,0.359199732,0.37213322,0.385532396
1.49,0.361844473,0.374894391,0.388414953
1.5,0.364359025,0.377942783,0.392032959
1.51,0.36686923,0.380514456,0.394667199
1.52,0.369324197,0.382839578,0.396849554
1.53,0.371874774,0.385351915,0.399317483
1.54,0.374531835,0.387677148,0.401283836
1.55,0.376789119,0.390235379,0.404161488
1.56,0.379303929,0.392942245,0.407070943
1.57,0.382457041,0.396377532,0.410804694
1.58,0.384614066,0.398356495,0.412589947
1.59,0.386707325,0.400781075,0.415367022
1.6,0.389281609,0.403189849,0.417595002
1.61,0.392135515,0.406084244,0.420529146
1.62,0.395112564,0.408623103,0.422595624
1.63,0.396711354,0.410761024,0.425308269
1.64,0.399157929,0.413188884,0.427713046
1.65,0.401938963,0.416184153,0.430934209
1.66,0.403656173,0.41780957,0.432459228
1.67,0.406283276,0.420579197,0.43537815
1.68,0.408861477,0.422930911,0.437484491
1.69,0.411957535,0.426043803,0.440611729
1.7,0.413635363,0.427754806,0.442356216
1.71,0.416344061,0.430095241,0.444300602
1.72,0.419343162,0.433433611,0.447997516
1.73,0.420658237,0.435430053,0.450720595
1.74,0.423749097,0.438004519,0.452739511
1.75,0.425034448,0.439750094,0.454975229
1.76,0.427846124,0.44236871,0.457384243
1.77,0.430083986,0.444634565,0.459677418
1.78,0.433138704,0.447579669,0.462502101
1.79,0.434810218,0.449638943,0.464973386
1.8,0.437333294,0.451659598,0.466455207
1.81,0.439094908,0.453885035,0.46917334
1.82,0.441610592,0.456495662,0.471882454
1.83,0.444147658,0.458703255,0.473735868
1.84,0.446137194,0.460940979,0.476235986
1.85,0.44912244,0.463709759,0.478770868
1.86,0.451019607,0.465859389,0.481187441
1.87,0.453620071,0.468029006,0.48289563
1.88,0.454756498,0.469874911,0.485495936
1.89,0.45691721,0.472059893,0.487704419
1.9,0.459724974,0.47466501,0.490090564
1.91,0.461716689,0.476628374,0.492021648
1.92,0.464043709,0.479006953,0.494452692
1.93,0.466100086,0.480763329,0.495887869
1.94,0.468640926,0.483729502,0.499303877
1.95,0.47040261,0.48547848,0.501037515
1.96,0.471610384,0.4869984,0.502888507
1.97,0.474308599,0.489273352,0.504710254
1.98,0.476894038,0.491902905,0.507384133
1.99,0.478262813,0.493534522,0.509293882
2,0.481097938,0.495860306,0.511075654
2.01,0.482279671,0.497445863,0.513088985
2.02,0.48462844,0.500006962,0.515873484
2.03,0.487468598,0.502390747,0.517769686
2.04,0.489028324,0.50426973,0.51998616
2.05,0.490815221,0.506054245,0.521766417
2.06,0.493302036,0.508530034,0.524228114
2.07,0.495141903,0.51053638,0.526409487
2.08,0.497071452,0.512380614,0.528161279
2.09,0.499197034,0.514339817,0.529941946
2.1,0.501665636,0.517047632,0.532901268
2.11,0.503256092,0.51871105,0.534640628
2.12,0.504977622,0.5204137,0.536321625
2.13,0.507504631,0.523128575,0.539233516
2.14,0.509103723,0.524854112,0.541091779
2.15,0.510901599,0.52620158,0.54195975
2.16,0.512964662,0.528409901,0.544320192
2.17,0.515292354,0.530641056,0.54644694
2.18,0.517097546,0.532233981,0.547813488
2.19,0.51861234,0.534437226,0.55074499
2.2,0.520366712,0.536512877,0.553160032
2.21,0.5235129,0.538507214,0.553930991
2.22,0.524040951,0.53978795,0.556008134
2.23,0.526717389,0.542192671,0.558122626
2.24,0.527719772,0.543226805,0.559189511
2.25,0.529729911,0.545375645,0.561483481
2.26,0.531588277,0.547042955,0.56294694
2.27,0.533875067,0.549527318,0.565638465
2.28,0.535751126,0.551596216,0.567909932
2.29,0.537047366,0.553017886,0.569463332
2.3,0.537920848,0.554097744,0.570761129
2.31,0.540598653,0.55645855,0.57278374
2.32,0.542461352,0.55832597,0.574654558
2.33,0.545154448,0.560718425,0.576726748
2.34,0.545570625,0.561212973,0.577303812
2.35,0.54812744,0.563817016,0.579955691
2.36,0.549342931,0.564915542,0.5809296
2.37,0.552569885,0.568246334,0.584367526
2.38,0.552763202,0.568336374,0.584348295
2.39,0.55504372,0.570743276,0.586886897
2.4,0.556353354,0.571949341,0.587982524
2.41,0.559099269,0.574741208,0.590820762
2.42,0.560360006,0.575858693,0.591786049
2.43,0.561640269,0.577381486,0.593563885
2.44,0.562856073,0.578897941,0.595397015
2.45,0.565289823,0.581162292,0.597480435
2.46,0.56709148,0.582441989,0.598208019
2.47,0.568297154,0.583878813,0.599887692
2.48,0.569473891,0.584981941,0.60091231
2.49,0.571907367,0.587533987,0.603587584
2.5,0.573293849,0.588675332,0.604469501
2.51,0.574738828,0.590319649,0.606322858
2.52,0.575737303,0.59171783,0.608141923
2.53,0.577456785,0.593136903,0.609242795
2.54,0.579498259,0.594908643,0.61072883
2.55,0.580879174,0.59701806,0.61360534
2.56,0.582476641,0.598216146,0.614380959
2.57,0.584389534,0.600252458,0.616545972
2.58,0.585045041,0.600806504,0.61699259
2.59,0.586882037,0.602561131,0.618659106
2.6,0.589571614,0.605280615,0.621408178
2.61,0.590277558,0.606313633,0.62278536
2.62,0.591442047,0.6070289,0.623026529
2.63,0.592798566,0.608661682,0.624949291
2.64,0.594494543,0.610079008,0.626072015
2.65,0.597403366,0.612743659,0.628477864
2.66,0.5983113,0.613843695,0.629779316
2.67,0.599870232,0.615588542,0.631718717
2.68,0.600900905,0.616725112,0.632966037
2.69,0.603283714,0.618903353,0.634927401
2.7,0.603240364,0.619448875,0.636092893
2.71,0.605701545,0.621173893,0.637041474
2.72,0.606806469,0.622795545,0.639205927
2.73,0.607622786,0.623541579,0.639877421
2.74,0.6092788,0.624657483,0.640424335
2.75,0.610801204,0.626418822,0.642435767
2.76,0.61240793,0.62787171,0.643725962
2.77,0.613644122,0.629201906,0.645154128
2.78,0.614974846,0.630817066,0.647067393
2.79,0.616468122,0.632137137,0.648204419
2.8,0.617523539,0.633399494,0.649683606
2.81,0.618777418,0.634212856,0.650033333
2.82,0.620048068,0.635636114,0.651616045
2.83,0.622373107,0.637820718,0.653651747
2.84,0.62323934,0.638788192,0.654724965
2.85,0.624498237,0.640408543,0.656724196
2.86,0.626231435,0.641806634,0.657769209
2.87,0.626701017,0.642578216,0.658857657
2.88,0.628616298,0.64419728,0.660164455
2.89,0.629725698,0.645221289,0.661098178
2.9,0.630467241,0.646133952,0.662189971
2.91,0.632067881,0.647894528,0.664117466
2.92,0.633990919,0.649327342,0.665034757
2.93,0.634961847,0.650290744,0.665989703
2.94,0.636241682,0.651784377,0.667706763
2.95,0.637236279,0.653187003,0.669536991
2.96,0.638442363,0.654220862,0.670389311
2.97,0.639839092,0.655337425,0.671211162
2.98,0.64143981,0.65694241,0.672819684
2.99,0.642797337,0.65829923,0.674174971
3,0.643941831,0.6598636,0.676179043
3.01,0.645182478,0.660876876,0.676953048
3.02,0.646396716,0.66213986,0.678266432
3.03,0.647678319,0.662990065,0.678663796
3.04,0.648728934,0.664219498,0.68007995
3.05,0.649723629,0.665353801,0.681359982
3.06,0.651055126,0.666372166,0.682049562
3.07,0.651484863,0.667288929,0.683476378
3.08,0.653094507,0.669105585,0.685509187
3.09,0.653889722,0.66954114,0.685567188
3.1,0.655996832,0.671345416,0.687053117
3.11,0.656412888,0.671934271,0.68782267
3.12,0.657580841,0.673182439,0.689154197
3.13,0.658337443,0.673834973,0.689697322
3.14,0.659950069,0.675808281,0.692047557
3.15,0.661727935,0.676857409,0.692332797
3.16,0.662673575,0.678312284,0.694320059
3.17,0.66260935,0.678370795,0.694507156
3.18,0.664782183,0.680313443,0.696207558
3.19,0.665234825,0.681006879,0.697152872
3.2,0.667591835,0.683213243,0.699200185
3.21,0.668606909,0.683967665,0.699681323
3.22,0.669427887,0.68482869,0.700583802
3.23,0.670265373,0.685498273,0.701077366
3.24,0.671292225,0.686828079,0.702723483
3.25,0.672712164,0.688040768,0.703718654
3.26,0.673673804,0.689041011,0.704758761
3.27,0.675505529,0.690622811,0.706078405
3.28,0.675095119,0.690803683,0.706877764
3.29,0.676735436,0.692147368,0.70791029
3.3,0.677584961,0.693215376,0.709206351
3.31,0.678851031,0.694120747,0.709733931
3.32,0.679905834,0.695096186,0.710625919
3.33,0.681423515,0.696326099,0.711554599
3.34,0.681759873,0.697170237,0.712928935
3.35,0.682524512,0.697712657,0.713238782
3.36,0.685301013,0.699962277,0.714937202
3.37,0.685153539,0.700744827,0.716690909
3.38,0.685650951,0.701093072,0.716882978
3.39,0.687169634,0.702280481,0.717723615
3.4,0.688250285,0.703389503,0.718861734
3.41,0.688923559,0.704199936,0.719815055
3.42,0.689718172,0.704625366,0.719854756
3.43,0.691732422,0.706447686,0.721475988
3.44,0.692247395,0.707191065,0.722457326
3.45,0.692223836,0.707179483,0.72245825
3.46,0.694242142,0.709400516,0.724889865
3.47,0.694751092,0.709587829,0.724741411
3.48,0.69582091,0.710653651,0.725802581
3.49,0.696302325,0.711661713,0.727359907
3.5,0.698101271,0.712847266,0.727904741
3.51,0.698508,0.713473727,0.728760098
3.52,0.699580761,0.714583011,0.72990698
3.53,0.700485866,0.715848892,0.73154886
3.54,0.701603955,0.716713801,0.732149054
3.55,0.702603946,0.717375141,0.732456878
3.56,0.702767054,0.718110969,0.733789896
3.57,0.704051409,0.719194814,0.734663939
3.58,0.705054776,0.719854805,0.734965506
3.59,0.705431804,0.720530188,0.735951723
3.6,0.706474685,0.721581876,0.737012117
3.61,0.707681413,0.722672571,0.737981295
3.62,0.708023781,0.722956912,0.738205001
3.63,0.709452172,0.724394808,0.73965217
3.64,0.710485223,0.725485288,0.740802041
3.65,0.710683469,0.725499487,0.740624382
3.66,0.712000152,0.726881294,0.74207346
3.67,0.713096515,0.727864075,0.742937457
3.68,0.713838308,0.728699106,0.743869279
3.69,0.714653975,0.729561371,0.744779729
3.7,0.715865536,0.731089956,0.746638155
3.71,0.715702951,0.730811765,0.746239533
3.72,0.716796924,0.731558403,0.746623876
3.73,0.717691229,0.732592267,0.747802687
3.74,0.719062061,0.73401302,0.749274843
3.75,0.719740669,0.734370424,0.74929755
3.76,0.720463089,0.735114094,0.750063035
3.77,0.721139184,0.736217196,0.751610469
3.78,0.722426986,0.737232616,0.752341676
3.79,0.72394231,0.738362675,0.753070283
3.8,0.723808008,0.738153656,0.752783629
3.81,0.725076245,0.739576573,0.754366884
3.82,0.725486895,0.7400237,0.754851784
3.83,0.725944204,0.740727483,0.755811811
3.84,0.726788565,0.741397322,0.756299723
3.85,0.727723536,0.742412432,0.757397818
3.86,0.72825901,0.742931052,0.757898687
3.87,0.729671598,0.74396328,0.758534885
3.88,0.730378209,0.74465013,0.759200932
3.89,0.730456553,0.745256563,0.76035644
3.9,0.73174796,0.746329153,0.761200898
3.91,0.732893771,0.7472414,0.761869908
3.92,0.733119445,0.747736394,0.762644776
3.93,0.73420509,0.748636095,0.763350746
3.94,0.734291876,0.748661463,0.763312253
3.95,0.735995424,0.750226266,0.764732268
3.96,0.735489379,0.750285733,0.765379757
3.97,0.737187709,0.751439763,0.765967352
3.98,0.737354513,0.751878729,0.76668904
3.99,0.738699861,0.75290225,0.767377698
4,0.739610792,0.753573878,0.767800573
4.01,0.740162707,0.754304163,0.768715803
4.02,0.74111016,0.755071514,0.769295878
4.03,0.740967569,0.755721736,0.770769688
4.04,0.742067523,0.756499482,0.771212118
4.05,0.742543468,0.7566734,0.771072212
4.06,0.743786097,0.757828541,0.772136102
4.07,0.743602904,0.757804343,0.772277003
4.08,0.74491222,0.758911241,0.773173344
4.09,0.745573947,0.759398393,0.773479174
4.1,0.746289159,0.760542514,0.775068092
4.11,0.747130023,0.761150311,0.775433698
4.12,0.746820378,0.761421489,0.776308068
4.13,0.748324342,0.762258335,0.776451784
4.14,0.749145924,0.763416453,0.777958823
4.15,0.749944712,0.763996751,0.77831209
4.16,0.750384741,0.764320944,0.778515971
4.17,0.751077063,0.765263445,0.779717781
4.18,0.752029908,0.766010237,0.780250462
4.19,0.752060242,0.766371318,0.780954722
4.2,0.753081744,0.767375898,0.781941367
4.21,0.753475627,0.767569091,0.781926168
4.22,0.753373408,0.767604168,0.782103738
4.23,0.754987252,0.768818908,0.782903966
4.24,0.75521443,0.769315467,0.783679793
4.25,0.755951251,0.769735385,0.783770861
4.26,0.757352188,0.771162558,0.78522476
4.27,0.757526074,0.771342823,0.78541158
4.28,0.759214672,0.773143317,0.787327499
4.29,0.757953464,0.772346729,0.787013317
4.3,0.759096993,0.773031852,0.787222516
4.31,0.759742265,0.773724964,0.787965009
4.32,0.760793312,0.774657236,0.788773803
4.33,0.761046178,0.775073864,0.78936011
4.34,0.762370078,0.776007336,0.789888537
4.35,0.76282767,0.776129046,0.789662356
4.36,0.763490591,0.777098358,0.790948658
4.37,0.763615459,0.777627997,0.79189767
4.38,0.763783385,0.777709935,0.791890417
4.39,0.765369259,0.778593259,0.792045742
4.4,0.765543163,0.779395585,0.793498666
4.41,0.76571632,0.779781005,0.794104031
4.42,0.765801404,0.779984866,0.79443102
4.43,0.767216672,0.780786938,0.794597231
4.44,0.767909319,0.78182464,0.795992122
4.45,0.768974469,0.782353359,0.79596502
4.46,0.76933817,0.782214482,0.795306303
4.47,0.769109909,0.78267601,0.796481399
4.48,0.769543193,0.783487964,0.797685425
4.49,0.770602538,0.784091275,0.797816122
4.5,0.770878452,0.784551226,0.798466508
4.51,0.771690993,0.785341521,0.799233514
4.52,0.772694341,0.785987717,0.799509791
4.53,0.773584407,0.787103481,0.800858814
4.54,0.773360393,0.786831001,0.800536244
4.55,0.774022895,0.787234817,0.800672256
4.56,0.774906157,0.788167116,0.80165501
4.57,0.774711668,0.788522917,0.802580389
4.58,0.77610236,0.789338575,0.802800529
4.59,0.776762061,0.790108358,0.803683971
4.6,0.77658676,0.790113642,0.80387614
4.61,0.777728267,0.79103872,0.804576976
4.62,0.77795895,0.79139885,0.805070935
4.63,0.778338133,0.79196278,0.805825924
4.64,0.778804458,0.792357935,0.806147283
4.65,0.779785091,0.793081382,0.806604392
4.66,0.780097426,0.793435413,0.807001451
4.67,0.780601373,0.794043291,0.807716678
4.68,0.781048639,0.794464833,0.808111479
4.69,0.781296378,0.79458395,0.808097505
4.7,0.78210342,0.795415946,0.80895507
4.71,0.782964954,0.796089968,0.809434998
4.72,0.782785401,0.796146737,0.809736138
4.73,0.784184998,0.797312688,0.810660143
4.74,0.784945008,0.797394241,0.810040918
4.75,0.784973386,0.797646751,0.810524727
4.76,0.785489146,0.798646183,0.812023602
4.77,0.785685774,0.799008379,0.81255689
4.78,0.785756852,0.79898858,0.812443123
