flow depth [m],16th percentile vulnerability,median vulnerability,84th percentile vulnerability
0.000001,0.010680844,0.011035424,0.011401775
0.01,0.012649962,0.014930856,0.017623013
0.02,0.014922603,0.017984009,0.021673469
0.03,0.017164395,0.020768187,0.025128622
0.04,0.019355867,0.023398455,0.028285362
0.05,0.021529051,0.025895723,0.031148072
0.06,0.023680026,0.028395344,0.034049605
0.07,0.025787873,0.030733707,0.0366281
0.08,0.027859589,0.033084635,0.039289634
0.09,0.029977295,0.035350858,0.041687656
0.1,0.032039022,0.037568208,0.044051603
0.11,0.034079514,0.039723886,0.046303099
0.12,0.036081981,0.041927072,0.048719035
0.13,0.038146492,0.044132893,0.051058753
0.14,0.040112169,0.046195609,0.053201668
0.15,0.042029748,0.048281914,0.055464126
0.16,0.044046669,0.050332235,0.057514766
0.17,0.04610849,0.052406528,0.059564827
0.18,0.047869797,0.054329379,0.06166062
0.19,0.049741304,0.056351204,0.063839464
0.2,0.051567832,0.058221249,0.065733109
0.21,0.053400435,0.06010414,0.067649405
0.22,0.055363207,0.062108716,0.069676105
0.23,0.057284843,0.063956145,0.071404375
0.24,0.059061429,0.065825684,0.073364644
0.25,0.060920365,0.067797354,0.075450652
0.26,0.062762783,0.069622501,0.077231958
0.27,0.064519907,0.071467757,0.079163789
0.28,0.066428502,0.073387449,0.081075405
0.29,0.068087126,0.07501277,0.082642872
0.3,0.069906453,0.076904931,0.08460404
0.31,0.071679662,0.078729566,0.086472848
0.32,0.073457098,0.08048226,0.088179283
0.33,0.075213494,0.082356009,0.0901768
0.34,0.076822394,0.084090455,0.092046137
0.35,0.078886902,0.086112477,0.093999873
0.36,0.080499318,0.087736945,0.095625301
0.37,0.082176491,0.089522356,0.097524877
0.38,0.084032081,0.091283635,0.099160961
0.39,0.085709721,0.093121831,0.101174934
0.4,0.087567858,0.095057234,0.10318715
0.41,0.089167446,0.096792841,0.105070341
0.42,0.09115276,0.098782181,0.107050179
0.43,0.092568481,0.100352192,0.108790404
0.44,0.094563798,0.102309095,0.110688774
0.45,0.096210726,0.104047164,0.112521887
0.46,0.097940995,0.105912147,0.114532051
0.47,0.099811321,0.107759163,0.116339881
0.48,0.101583689,0.109658192,0.118374507
0.49,0.103481996,0.111555136,0.120258102
0.5,0.105270966,0.113353806,0.122057257
0.51,0.106950979,0.115278093,0.124253548
0.52,0.108838395,0.117181142,0.126163382
0.53,0.110573468,0.119077158,0.128234828
0.54,0.112520486,0.120862855,0.129823735
0.55,0.114225036,0.122853652,0.132134078
0.56,0.115928537,0.1247218,0.134182039
0.57,0.117887945,0.126598721,0.135953139
0.58,0.119845471,0.128673177,0.138151124
0.59,0.121350273,0.130417532,0.140162293
0.6,0.123337452,0.13245397,0.142244337
0.61,0.125138726,0.134318949,0.144172638
0.62,0.126994421,0.136419397,0.146543854
0.63,0.128880262,0.138286686,0.148379645
0.64,0.130918228,0.140261595,0.15027178
0.65,0.132671873,0.142398906,0.15283909
0.66,0.134441449,0.144295699,0.154872244
0.67,0.13646608,0.146304959,0.156853199
0.68,0.138470888,0.148400587,0.15904234
0.69,0.140332353,0.150222683,0.160810064
0.7,0.141978911,0.152259163,0.163283777
0.71,0.144451478,0.154597928,0.165457076
0.72,0.146162062,0.156550239,0.167676734
0.73,0.148069085,0.158607518,0.169895997
0.74,0.150018112,0.160626256,0.171984527
0.75,0.151815322,0.162671418,0.174303818
0.76,0.153769182,0.164703289,0.17641489
0.77,0.155732524,0.166994827,0.179071599
0.78,0.157860084,0.168995659,0.180916746
0.79,0.159686752,0.170959502,0.183028028
0.8,0.161373922,0.172839512,0.18511973
0.81,0.163973668,0.175307703,0.187425158
0.82,0.165814374,0.177493034,0.189994246
0.83,0.16790915,0.179423618,0.191727699
0.84,0.169823049,0.181795179,0.194611316
0.85,0.171592694,0.183536324,0.196311285
0.86,0.173597299,0.185993567,0.199275031
0.87,0.175389503,0.187731388,0.200941752
0.88,0.177824822,0.190269197,0.203584443
0.89,0.1800033,0.192436801,0.205729131
0.9,0.18187495,0.194415606,0.207820967
0.91,0.184040944,0.196718166,0.210268628
0.92,0.185993223,0.198868362,0.212634766
0.93,0.188112484,0.201333022,0.215482698
0.94,0.190238093,0.20341243,0.217499115
0.95,0.192238319,0.205430584,0.219528162
0.96,0.194034128,0.207511028,0.221923983
0.97,0.196155103,0.209710511,0.224202673
0.98,0.19823597,0.212260365,0.227276929
0.99,0.200194656,0.214270135,0.229335248
1,0.202295819,0.216560035,0.231830044
1.01,0.204277066,0.218217178,0.233108579
1.02,0.206873925,0.221064255,0.236227959
1.03,0.208593467,0.223143876,0.238709248
1.04,0.21070247,0.225194809,0.240683947
1.05,0.212724449,0.227350595,0.242982379
1.06,0.214739279,0.229677791,0.245655513
1.07,0.216657656,0.231694213,0.247774342
1.08,0.219128352,0.234103655,0.250102375
1.09,0.220712835,0.236091148,0.252540955
1.1,0.222989184,0.238366117,0.254803415
1.11,0.225536565,0.241006249,0.257537007
1.12,0.227289944,0.242916073,0.259616495
1.13,0.229344999,0.245111441,0.261961756
1.14,0.231477616,0.247428363,0.26447825
1.15,0.233550939,0.249484836,0.266505815
1.16,0.235789227,0.252023521,0.26937556
1.17,0.23754306,0.254316062,0.272273412
1.18,0.239716286,0.256268963,0.273964621
1.19,0.242316803,0.258873562,0.276561594
1.2,0.243844836,0.260806893,0.278948845
1.21,0.246343266,0.26320249,0.281215525
1.22,0.248671218,0.265579665,0.283637804
1.23,0.250478614,0.267785608,0.28628844
1.24,0.252340573,0.269919581,0.28872321
1.25,0.254358818,0.271853508,0.290551475
1.26,0.257114976,0.274725792,0.293542842
1.27,0.258741835,0.276333483,0.295121174
1.28,0.260879509,0.278540987,0.297398142
1.29,0.263309451,0.281238984,0.300389393
1.3,0.265327584,0.283216303,0.302311102
1.31,0.267464439,0.285340838,0.304412035
1.32,0.269012109,0.287421801,0.30709135
1.33,0.271444994,0.290238801,0.310333818
1.34,0.273644693,0.292451351,0.312550525
1.35,0.275734919,0.29424629,0.314000416
1.36,0.277751839,0.296839664,0.317239253
1.37,0.279342802,0.29832672,0.31860077
1.38,0.281965929,0.30113165,0.321600099
1.39,0.283665043,0.303137677,0.32394704
1.4,0.285401211,0.304989398,0.325921998
1.41,0.287972625,0.307655268,0.328683199
1.42,0.289887506,0.30947011,0.330375565
1.43,0.291947157,0.311769052,0.332936764
1.44,0.294456393,0.314263626,0.335403233
1.45,0.296601562,0.316822143,0.338421245
1.46,0.29826636,0.31848883,0.340082385
1.47,0.300532139,0.320824075,0.342486122
1.48,0.302776122,0.322811029,0.344171661
1.49,0.303973479,0.324773039,0.346995821
1.5,0.306658659,0.327372181,0.349484816
1.51,0.309216053,0.329773444,0.351697537
1.52,0.310243836,0.331219691,0.353613741
1.53,0.312598461,0.333743809,0.356319509
1.54,0.314303845,0.335466227,0.358053493
1.55,0.316516219,0.337783576,0.360479929
1.56,0.318499953,0.339887835,0.362711953
1.57,0.320547213,0.34239042,0.365722099
1.58,0.322023518,0.343764086,0.366972412
1.59,0.324825811,0.346713621,0.370076303
1.6,0.326702993,0.348643717,0.372057936
1.61,0.32906975,0.350859387,0.374091844
1.62,0.331154949,0.352781351,0.375820086
1.63,0.332533872,0.354743517,0.378436526
1.64,0.335113712,0.357156914,0.38065008
1.65,0.336045404,0.358784111,0.383061445
1.66,0.338828996,0.361329129,0.385323396
1.67,0.3405861,0.363277204,0.387480072
1.68,0.342386819,0.365386872,0.389931968
1.69,0.344955446,0.3672399,0.390963951
1.7,0.345720823,0.368863554,0.393555472
1.71,0.348422323,0.371343964,0.395773549
1.72,0.349936294,0.373162457,0.3979302
1.73,0.352720245,0.375644357,0.400058362
1.74,0.3541155,0.377414596,0.40224666
1.75,0.356439042,0.37951032,0.404074936
1.76,0.357151759,0.380912197,0.406253359
1.77,0.359979632,0.382936487,0.407357361
1.78,0.361931397,0.385884402,0.411422643
1.79,0.363695173,0.387761974,0.413421349
1.8,0.365763864,0.389511167,0.414800269
1.81,0.36739245,0.39117773,0.416502889
1.82,0.369919876,0.393875126,0.41938167
1.83,0.371044411,0.395279644,0.421097832
1.84,0.373583893,0.39785751,0.423708305
1.85,0.375502946,0.399879719,0.425838976
1.86,0.376383465,0.40093287,0.427083498
1.87,0.37868547,0.403224436,0.429353537
1.88,0.380815391,0.405523472,0.431834665
1.89,0.383031627,0.407483799,0.433496961
1.9,0.38517528,0.409386997,0.435120638
1.91,0.386096804,0.410951193,0.437405546
1.92,0.387473445,0.412885923,0.43996508
1.93,0.389414415,0.414799424,0.441839222
1.94,0.391688768,0.416529141,0.442944856
1.95,0.393937053,0.418797769,0.445227403
1.96,0.394989531,0.420481764,0.447619241
1.97,0.396335661,0.421631867,0.448542609
1.98,0.399337262,0.424451963,0.451146152
1.99,0.399859917,0.425468872,0.452717947
2,0.402970339,0.427973371,0.454527762
2.01,0.404098185,0.429680414,0.456882176
2.02,0.405602136,0.431437363,0.458918191
2.03,0.407879947,0.43329001,0.460283066
2.04,0.408991897,0.43508473,0.462842232
2.05,0.411242416,0.437074084,0.464528336
2.06,0.413413383,0.439180706,0.46655406
2.07,0.414010438,0.44031733,0.468295804
2.08,0.416074718,0.442236025,0.470042263
2.09,0.418910942,0.444857937,0.472412067
2.1,0.419849972,0.445875079,0.473513396
2.11,0.421667391,0.447582588,0.475090505
2.12,0.423332174,0.449600512,0.477498836
2.13,0.425722674,0.45178405,0.479440821
2.14,0.425990659,0.452645577,0.480968336
2.15,0.428266419,0.454820283,0.483020571
2.16,0.429845511,0.456915982,0.485691277
2.17,0.431611646,0.458648283,0.487378525
2.18,0.432744032,0.459969723,0.488908293
2.19,0.434555091,0.461552889,0.490227992
2.2,0.437667117,0.463915804,0.491738731
2.21,0.437851774,0.465011084,0.493855046
2.22,0.439581424,0.466799923,0.495703768
2.23,0.441853356,0.468731792,0.497245275
2.24,0.44200723,0.469730121,0.499191804
2.25,0.444190457,0.471734867,0.500987317
2.26,0.446559364,0.473844629,0.502797054
2.27,0.447822172,0.475132628,0.504108612
2.28,0.449514694,0.476663526,0.505452036
2.29,0.451210325,0.478616967,0.507688295
2.3,0.452524289,0.480011778,0.509168927
2.31,0.454023443,0.482194034,0.512112513
2.32,0.455764677,0.48350749,0.512939033
2.33,0.457848924,0.485266139,0.514325171
2.34,0.459736605,0.487163346,0.516226298
2.35,0.461545258,0.488720112,0.517494967
2.36,0.462602988,0.489926213,0.51886326
2.37,0.463294104,0.490748003,0.519828765
2.38,0.465891566,0.49341483,0.522564074
2.39,0.466593803,0.494680831,0.524458582
2.4,0.469039272,0.496540573,0.525654366
2.41,0.470536908,0.498383546,0.527878163
2.42,0.471179371,0.499129374,0.52873735
2.43,0.47279117,0.500733254,0.530326723
2.44,0.474109129,0.502569967,0.532739312
2.45,0.475210696,0.503748081,0.533999196
2.46,0.4773367,0.505187402,0.534663082
2.47,0.478850192,0.506898108,0.536588888
2.48,0.480656393,0.508355255,0.537650324
2.49,0.480995267,0.509771807,0.540269963
2.5,0.483659852,0.51203471,0.542074235
2.51,0.483817055,0.51234715,0.54255963
2.52,0.485583118,0.513709372,0.543464773
2.53,0.487612293,0.51606722,0.546182652
2.54,0.489291169,0.517544202,0.547428644
2.55,0.490207834,0.518876795,0.549222411
2.56,0.492154283,0.520175319,0.549791747
2.57,0.493167996,0.521599461,0.551670019
2.58,0.494952651,0.523305929,0.553283419
2.59,0.495203258,0.524008581,0.554489473
2.6,0.49763961,0.526004315,0.555985765
2.61,0.498496537,0.527407119,0.557994387
2.62,0.499462575,0.528407802,0.559030485
2.63,0.501207488,0.530111466,0.560682298
2.64,0.502571516,0.53132366,0.561720716
2.65,0.503494799,0.532682908,0.563563083
2.66,0.505520592,0.533930729,0.563937509
2.67,0.507154582,0.535857871,0.566185672
2.68,0.50868012,0.537075153,0.567055226
2.69,0.510463536,0.539214505,0.569584821
2.7,0.511699177,0.540423005,0.570759222
2.71,0.512148717,0.540957757,0.571387343
2.72,0.513954955,0.54204214,0.571664264
2.73,0.514148975,0.543379712,0.574272294
2.74,0.516125129,0.545420291,0.576378241
2.75,0.516811272,0.545964592,0.57676245
2.76,0.518772832,0.548054289,0.578988499
2.77,0.520348423,0.549216624,0.579686391
2.78,0.521907788,0.550175747,0.579974776
2.79,0.522943059,0.551955199,0.582576892
2.8,0.523502698,0.552902403,0.583953184
2.81,0.525865505,0.554808795,0.585345106
2.82,0.525647437,0.555121355,0.586247924
2.83,0.527489027,0.556408827,0.586914168
2.84,0.528799287,0.557750506,0.588286775
2.85,0.530084824,0.559499616,0.590546655
2.86,0.531224601,0.560224967,0.590808508
2.87,0.532235844,0.561479092,0.592329086
2.88,0.534324684,0.563533696,0.594339427
2.89,0.534890329,0.564222927,0.595164081
2.9,0.536449355,0.565842178,0.596845475
2.91,0.537541894,0.567130567,0.598347932
2.92,0.539186378,0.568090158,0.598543363
2.93,0.5400801,0.569214323,0.599920171
2.94,0.541450163,0.570627766,0.601377689
2.95,0.542252075,0.571681857,0.602708889
2.96,0.54467997,0.573331689,0.60349057
2.97,0.544808306,0.574199155,0.605175557
2.98,0.54661858,0.575561256,0.606036405
2.99,0.547766937,0.57680271,0.607377597
3,0.548998279,0.578144697,0.608838502
3.01,0.549631374,0.579328165,0.610629486
3.02,0.550565671,0.579908476,0.610815127
3.03,0.552028599,0.581303804,0.612131534
3.04,0.552966364,0.582473062,0.61355426
3.05,0.554910447,0.584114052,0.614854572
3.06,0.555711281,0.584692302,0.615184719
3.07,0.556400234,0.585965554,0.61710188
3.08,0.558033877,0.587560997,0.618650479
3.09,0.558639062,0.587624282,0.618113413
3.1,0.559484159,0.588781965,0.619613973
3.11,0.561619382,0.590504503,0.620875239
3.12,0.561909339,0.591456288,0.622556908
3.13,0.563141341,0.59263263,0.623668356
3.14,0.564539404,0.593806166,0.624590171
3.15,0.565201942,0.594984179,0.626335735
3.16,0.566860674,0.596348995,0.62737131
3.17,0.56693766,0.596774256,0.628181083
3.18,0.568393067,0.597916972,0.62897443
3.19,0.569905772,0.599159632,0.629915123
3.2,0.570520564,0.599815346,0.63061434
3.21,0.571466181,0.600944614,0.631943658
3.22,0.572987515,0.602497032,0.633526323
3.23,0.574048674,0.603319982,0.634083863
3.24,0.573623943,0.603958458,0.63589713
3.25,0.576711888,0.605565775,0.635863271
3.26,0.577312447,0.607071865,0.638365327
3.27,0.577757672,0.60747572,0.638722372
3.28,0.579242798,0.608508777,0.639253407
3.29,0.580249959,0.609650281,0.64054027
3.3,0.580720869,0.609969164,0.640690564
3.31,0.582279006,0.611484184,0.642154198
3.32,0.58252334,0.612367945,0.643741588
3.33,0.583816523,0.61329512,0.644262178
3.34,0.585632879,0.615024461,0.645891139
3.35,0.585553423,0.615401635,0.646771341
3.36,0.587611999,0.61657767,0.646971171
3.37,0.587707593,0.617272826,0.648325368
3.38,0.589096183,0.618732689,0.649860161
3.39,0.589532682,0.619593795,0.651187768
3.4,0.590445129,0.62058757,0.652268793
3.41,0.592643392,0.6219448,0.652694925
3.42,0.593239646,0.622603993,0.653421825
3.43,0.593512593,0.623404828,0.654802585
3.44,0.595135191,0.62456758,0.655455548
3.45,0.594894281,0.624734747,0.65607204
3.46,0.596734251,0.626097599,0.656905821
3.47,0.597143665,0.62700195,0.658353204
3.48,0.598555892,0.62779678,0.658466156
3.49,0.599149805,0.628417139,0.659114128
3.5,0.600828626,0.630501132,0.661639043
3.51,0.601347623,0.630651595,0.661383564
3.52,0.603441772,0.63282707,0.663643319
3.53,0.603430839,0.632786386,0.663570013
3.54,0.603598453,0.633843002,0.665603017
3.55,0.606050981,0.63548746,0.666353697
3.56,0.605902207,0.635594742,0.666742375
3.57,0.607054961,0.636866301,0.66814162
3.58,0.607297459,0.636992058,0.668138613
3.59,0.60766718,0.637497934,0.668793098
3.6,0.609982066,0.639632677,0.670724574
3.61,0.60958953,0.639504539,0.670887598
3.62,0.611768923,0.640940711,0.671503536
3.63,0.611894794,0.641871602,0.673316979
3.64,0.613996479,0.64288281,0.673128139
3.65,0.613362574,0.642861979,0.673780145
3.66,0.615672662,0.644765478,0.675233038
3.67,0.614913268,0.644827378,0.67619674
3.68,0.615859949,0.64590432,0.677414389
3.69,0.617953044,0.646489225,0.676343164
3.7,0.618015947,0.647648194,0.678701231
3.71,0.618481288,0.647959468,0.678842643
3.72,0.620214567,0.649505554,0.680179872
3.73,0.620875034,0.650192959,0.680895288
3.74,0.622273645,0.65170178,0.682521609
3.75,0.622621192,0.652225991,0.683238459
3.76,0.623470468,0.652700381,0.683300669
3.77,0.623526162,0.653495809,0.684905942
3.78,0.624899952,0.654464413,0.68542759
3.79,0.626126575,0.655277251,0.685785099
3.8,0.626554728,0.656142192,0.687126849
3.81,0.627441789,0.656621463,0.687158161
3.82,0.628438139,0.657740271,0.688408671
3.83,0.628530456,0.658159745,0.689185776
3.84,0.629333592,0.659001079,0.690067124
3.85,0.631457273,0.660653689,0.691200047
3.86,0.630278519,0.659902302,0.690918436
3.87,0.632651205,0.661509755,0.691684695
3.88,0.632999361,0.662050217,0.692434332
3.89,0.634737964,0.663914152,0.694431444
3.9,0.633941355,0.663634232,0.69471788
3.91,0.634257801,0.664374144,0.695920495
3.92,0.636125766,0.665226618,0.695658748
3.93,0.637209886,0.666233536,0.696579156
3.94,0.638275161,0.666791032,0.69658089
3.95,0.639167374,0.668173333,0.698495606
3.96,0.638468624,0.668145296,0.69920137
3.97,0.640044756,0.66896705,0.699196281
3.98,0.640977316,0.670216283,0.700789021
3.99,0.641420337,0.670641432,0.701193748
4,0.642177299,0.671103269,0.701332168
4.01,0.64295849,0.671973578,0.702298043
4.02,0.643104328,0.672943801,0.7041678
4.03,0.644085961,0.673611083,0.704489647
4.04,0.644644308,0.673920757,0.704526792
4.05,0.645501337,0.674781081,0.705388945
4.06,0.646774833,0.675869317,0.706272586
4.07,0.647522449,0.676505065,0.706784922
4.08,0.648494055,0.676904455,0.706559509
4.09,0.648406816,0.677770349,0.708463631
4.1,0.649237637,0.678507965,0.709097921
4.11,0.64949583,0.679005783,0.709856526
4.12,0.651048065,0.68022154,0.710702278
4.13,0.65101077,0.680314847,0.710937995
4.14,0.6521552,0.68128717,0.711720473
4.15,0.652704877,0.68171242,0.712009117
4.16,0.653443388,0.682295029,0.712420563
4.17,0.654345854,0.683616022,0.714195501
4.18,0.654667149,0.684152711,0.714966274
4.19,0.655385355,0.684731475,0.715391623
4.2,0.656912422,0.685905397,0.716177984
4.21,0.657160367,0.686009891,0.716125917
4.22,0.658140305,0.686619001,0.716330012
4.23,0.659349245,0.687755963,0.717386526
4.24,0.658942902,0.687544291,0.717387121
4.25,0.660000745,0.688533337,0.718299425
4.26,0.660833328,0.689486033,0.719381074
4.27,0.662043776,0.690263291,0.719685659
4.28,0.662151197,0.690744931,0.720573431
4.29,0.662403212,0.691336372,0.721533306
4.3,0.663050702,0.69177211,0.721737646
4.31,0.663617321,0.692583957,0.722814976
4.32,0.665483262,0.693149384,0.721965669
4.33,0.665214364,0.693909446,0.723842336
4.34,0.664954701,0.694322724,0.724987798
4.35,0.666737787,0.694821584,0.724088303
4.36,0.666993087,0.696020691,0.72631158
4.37,0.667088939,0.696171896,0.726522777
4.38,0.667921311,0.696695626,0.726709549
4.39,0.668939597,0.697264731,0.726789245
4.4,0.670106351,0.698482882,0.728061053
4.41,0.670855455,0.699018338,0.728363514
4.42,0.671100347,0.69964576,0.729405358
4.43,0.671133844,0.7001416,0.73040313
4.44,0.672439229,0.700978131,0.730728248
4.45,0.672633328,0.701166131,0.730909283
4.46,0.673505315,0.701535739,0.730732753
4.47,0.673442981,0.702247035,0.732283078
4.48,0.675245018,0.703581573,0.733107268
4.49,0.674960525,0.703380003,0.732996095
4.5,0.67507267,0.703791582,0.733732253
4.51,0.676979805,0.705146222,0.734484531
4.52,0.676505174,0.704986946,0.734667839
4.53,0.677480554,0.705874329,0.735458111
4.54,0.677591542,0.706360674,0.736351284
4.55,0.678464419,0.706926185,0.736581929
4.56,0.680252616,0.707881664,0.736632889
4.57,0.678928685,0.707916269,0.738141509
4.58,0.68102115,0.709451481,0.739068682
4.59,0.682070974,0.70970505,0.738458719
4.6,0.681070459,0.709886947,0.739922677
4.61,0.68278575,0.711086269,0.740559805
4.62,0.683403989,0.711427902,0.740600974
4.63,0.683906159,0.711957257,0.7411589
4.64,0.683353808,0.712043407,0.741937497
4.65,0.684645943,0.713032808,0.742596652
4.66,0.685492653,0.713508679,0.742669718
4.67,0.686050373,0.714206256,0.743517673
4.68,0.686155484,0.714075804,0.74313223
4.69,0.687103342,0.715008026,0.744045977
4.7,0.687115773,0.715240385,0.744516177
4.71,0.688103523,0.716408613,0.74587803
4.72,0.688513965,0.716394406,0.745403828
4.73,0.688619834,0.716740307,0.746009108
4.74,0.691053588,0.718480714,0.746996392
4.75,0.690613286,0.71846128,0.747432205
4.76,0.691271358,0.719105906,0.748061232
4.77,0.690980184,0.719432543,0.749056478
