flow depth [m],16th percentile vulnerability,median vulnerability,84th percentile vulnerability
0.000001,0.003562022,0.003678563,0.003798916
0.01,0.003632386,0.003773498,0.003920093
0.02,0.003786099,0.004013612,0.004254797
0.03,0.004003143,0.004353975,0.004735554
0.04,0.004322752,0.004816312,0.005366226
0.05,0.004734887,0.005387034,0.006129004
0.06,0.005243639,0.006086906,0.007065785
0.07,0.005878466,0.006917037,0.008139095
0.08,0.00662962,0.007869065,0.009340231
0.09,0.007503085,0.008953147,0.010683451
0.1,0.008514537,0.010177903,0.012166218
0.11,0.00964,0.011537295,0.013808006
0.12,0.010899399,0.013033252,0.015584865
0.13,0.012306201,0.014639477,0.017415146
0.14,0.013842716,0.016339015,0.019285479
0.15,0.015490164,0.018206231,0.021398536
0.16,0.017262829,0.020171047,0.023569203
0.17,0.019124214,0.022200909,0.02577258
0.18,0.02113403,0.024384785,0.028135559
0.19,0.023196247,0.026661272,0.030643898
0.2,0.025333224,0.028885193,0.032935183
0.21,0.02756181,0.031308646,0.035564838
0.22,0.029758242,0.033628344,0.038001759
0.23,0.032230607,0.03624701,0.040763916
0.24,0.034596018,0.038763486,0.04343297
0.25,0.036990492,0.041286387,0.046081187
0.26,0.039302835,0.043775702,0.048757604
0.27,0.041822381,0.046449012,0.051587466
0.28,0.044477702,0.04926307,0.054563296
0.29,0.046947879,0.051834104,0.057228876
0.3,0.049423453,0.054376717,0.059826403
0.31,0.051903975,0.056942107,0.062469272
0.32,0.054572482,0.059771506,0.065465832
0.33,0.057118616,0.06250105,0.068390684
0.34,0.059496151,0.064891526,0.070776177
0.35,0.062400136,0.067750617,0.073559874
0.36,0.064781155,0.070403982,0.076514856
0.37,0.067057905,0.072865232,0.079175484
0.38,0.069558145,0.075352747,0.081630074
0.39,0.072187464,0.078214338,0.084744391
0.4,0.074752709,0.08066648,0.087048098
0.41,0.077221918,0.083452774,0.090186383
0.42,0.079688665,0.086108187,0.093044848
0.43,0.08212791,0.088556771,0.095488875
0.44,0.08476026,0.09110536,0.09792545
0.45,0.086866843,0.093347178,0.100310951
0.46,0.089339282,0.095980656,0.103115742
0.47,0.091753993,0.098432489,0.105597091
0.48,0.094265313,0.101073235,0.108372831
0.49,0.096089652,0.103105351,0.110633281
0.5,0.098760881,0.105699356,0.113125296
0.51,0.101183417,0.108407689,0.11614776
0.52,0.103920866,0.110879604,0.118304313
0.53,0.106074466,0.113293743,0.121004354
0.54,0.108080398,0.115465572,0.123355378
0.55,0.11061712,0.117972274,0.125816487
0.56,0.112870194,0.12036812,0.128364129
0.57,0.115076111,0.122607366,0.130631511
0.58,0.117490944,0.125087157,0.133174493
0.59,0.119455214,0.127352011,0.135770839
0.6,0.121937777,0.129624413,0.137795595
0.61,0.123923257,0.131831965,0.140245403
0.62,0.126288391,0.134325404,0.142873893
0.63,0.12855742,0.136801003,0.145573196
0.64,0.13089784,0.138954053,0.147506092
0.65,0.133067943,0.141229105,0.149890799
0.66,0.135068217,0.143369016,0.152179952
0.67,0.137520123,0.145842553,0.154668639
0.68,0.139498754,0.148099652,0.157230845
0.69,0.141531605,0.150283611,0.159576821
0.7,0.14401892,0.152618124,0.161730775
0.71,0.145965495,0.154812143,0.164194967
0.72,0.14867387,0.157328637,0.166487225
0.73,0.15051377,0.15954608,0.169120419
0.74,0.152833309,0.161811084,0.171316234
0.75,0.154887086,0.163923987,0.173488146
0.76,0.157219459,0.166259873,0.175820127
0.77,0.159205846,0.168496393,0.178329095
0.78,0.161397726,0.170622929,0.180375429
0.79,0.163715706,0.173237767,0.183313653
0.8,0.16588222,0.175251333,0.18514962
0.81,0.167833364,0.177358472,0.187424162
0.82,0.17011809,0.17971448,0.189852205
0.83,0.17218207,0.181953763,0.19228002
0.84,0.174516387,0.18432891,0.19469316
0.85,0.176750084,0.186544688,0.19688206
0.86,0.178599846,0.188677937,0.199324717
0.87,0.180866866,0.191011688,0.201725533
0.88,0.182855066,0.193009015,0.203726813
0.89,0.185769537,0.195788957,0.20634877
0.9,0.187764137,0.197914118,0.208612777
0.91,0.189633233,0.199930329,0.210786559
0.92,0.192198589,0.20249871,0.213350825
0.93,0.194127694,0.204429253,0.215277474
0.94,0.196234516,0.207042291,0.218445313
0.95,0.198283775,0.209043539,0.220387177
0.96,0.20084406,0.211428279,0.222570272
0.97,0.202870499,0.213439707,0.224559552
0.98,0.204891975,0.215808672,0.227307013
0.99,0.20744105,0.21820172,0.229520582
1,0.209682599,0.220580035,0.232043823
1.01,0.211302222,0.222354258,0.233984364
1.02,0.213684879,0.224732828,0.236351979
1.03,0.215924806,0.227221899,0.239110051
1.04,0.218361842,0.229550001,0.241311404
1.05,0.220439681,0.231692702,0.243520167
1.06,0.222313037,0.23395284,0.246202077
1.07,0.224425963,0.236033905,0.248242242
1.08,0.227127148,0.238653929,0.250765699
1.09,0.229090628,0.240822377,0.253154909
1.1,0.231110849,0.242771492,0.255020469
1.11,0.234008064,0.245801754,0.258189831
1.12,0.235728818,0.247533145,0.259928585
1.13,0.237573526,0.249637582,0.262314254
1.14,0.240797689,0.252578473,0.26493562
1.15,0.242623713,0.254557653,0.267078588
1.16,0.245222269,0.257177839,0.269716292
1.17,0.247083015,0.258872839,0.271225226
1.18,0.249186629,0.261351054,0.274109304
1.19,0.251178221,0.263784031,0.277022486
1.2,0.253688808,0.265834627,0.27856195
1.21,0.255913717,0.268283704,0.281251615
1.22,0.258262702,0.270538736,0.283398288
1.23,0.260545333,0.272917812,0.285877822
1.24,0.26209693,0.275031108,0.288603572
1.25,0.264728701,0.277282303,0.290431205
1.26,0.267001664,0.27940826,0.292391344
1.27,0.269241959,0.282002011,0.295366794
1.28,0.271301349,0.284069853,0.297439294
1.29,0.273792781,0.286393675,0.299574505
1.3,0.275678308,0.288524573,0.301969457
1.31,0.277640614,0.290793822,0.304570161
1.32,0.279613948,0.292636192,0.306264911
1.33,0.282140299,0.29516448,0.308789885
1.34,0.284763814,0.297719034,0.311263646
1.35,0.286221846,0.299561133,0.313522093
1.36,0.288911613,0.302139293,0.315972596
1.37,0.291414376,0.304664368,0.318516808
1.38,0.293057585,0.306344278,0.320233365
1.39,0.295000168,0.308493745,0.322604531
1.4,0.297245903,0.311006746,0.325404641
1.41,0.29963732,0.313008471,0.326976302
1.42,0.30151789,0.3151984,0.329499624
1.43,0.304160097,0.317531197,0.3314901
1.44,0.306224024,0.320163497,0.334737502
1.45,0.308180399,0.321921111,0.336274475
1.46,0.310949921,0.324782525,0.339230472
1.47,0.313299696,0.327060386,0.34142547
1.48,0.314688238,0.32860016,0.343127109
1.49,0.317048193,0.331009057,0.345584671
1.5,0.319457663,0.333292998,0.347727525
1.51,0.320695557,0.335440898,0.350864218
1.52,0.323376058,0.337541511,0.35232748
1.53,0.326050177,0.339757282,0.354040633
1.54,0.327765629,0.341630034,0.356080899
1.55,0.329931372,0.343916292,0.358493997
1.56,0.3318,0.346121985,0.361062172
1.57,0.334780265,0.349186587,0.364212844
1.58,0.336487691,0.350650659,0.365409755
1.59,0.338392348,0.352947697,0.368129118
1.6,0.340361765,0.355013588,0.370296139
1.61,0.34279338,0.357312562,0.37244671
1.62,0.34458833,0.359453977,0.374960932
1.63,0.346768626,0.361409421,0.376668359
1.64,0.348688706,0.363464961,0.378867384
1.65,0.350850896,0.365947487,0.381693661
1.66,0.352906753,0.367539315,0.382778585
1.67,0.354694492,0.369787216,0.385522155
1.68,0.357291012,0.372039784,0.387397378
1.69,0.359488363,0.374418583,0.389968882
1.7,0.360999765,0.376066779,0.391762645
1.71,0.36330031,0.378358677,0.394041195
1.72,0.365735675,0.380964205,0.396826822
1.73,0.367597255,0.382878504,0.398795005
1.74,0.370283455,0.385282327,0.400888749
1.75,0.3711774,0.386638155,0.4027429
1.76,0.373473415,0.389072399,0.405322911
1.77,0.375344697,0.390945306,0.407194329
1.78,0.378002322,0.393432553,0.409492653
1.79,0.380123471,0.395378597,0.411245942
1.8,0.381574046,0.397260432,0.41359168
1.81,0.383747983,0.399349187,0.415584656
1.82,0.385760883,0.401432481,0.41774074
1.83,0.387760104,0.403266475,0.41939294
1.84,0.389855576,0.405365056,0.421491543
1.85,0.392129241,0.407833823,0.424167366
1.86,0.393890387,0.409732781,0.426212361
1.87,0.396444633,0.411991967,0.428149019
1.88,0.397325539,0.413510823,0.430355423
1.89,0.399138738,0.415334172,0.432186752
1.9,0.402733686,0.417877257,0.433590256
1.91,0.403873006,0.419547882,0.435831123
1.92,0.406269787,0.421717726,0.437753054
1.93,0.407250361,0.423397647,0.440185165
1.94,0.409709274,0.425953088,0.442840923
1.95,0.411911804,0.427693263,0.444079351
1.96,0.413524248,0.429249705,0.445573168
1.97,0.415069086,0.430975508,0.447491502
1.98,0.417581947,0.433604756,0.450242367
1.99,0.419125203,0.435207065,0.45190599
2,0.420862851,0.437073656,0.453908869
2.01,0.422415068,0.438743452,0.455703007
2.02,0.424240178,0.440952842,0.458323889
2.03,0.426977007,0.442891211,0.459398567
2.04,0.428329191,0.444775055,0.461852364
2.05,0.43030636,0.446527648,0.463360431
2.06,0.432452309,0.448841514,0.465851843
2.07,0.434072745,0.450750166,0.468068346
2.08,0.436060021,0.452553608,0.46967105
2.09,0.438104469,0.45434958,0.471197068
2.1,0.440075939,0.456615765,0.473777225
2.11,0.441337511,0.458178743,0.475662629
2.12,0.443388063,0.460186326,0.47762101
2.13,0.44562072,0.462475348,0.479967466
2.14,0.447828678,0.464284108,0.481344191
2.15,0.448718782,0.465190026,0.482265884
2.16,0.450754132,0.46737184,0.484602183
2.17,0.452946607,0.469610704,0.48688788
2.18,0.454173815,0.471076869,0.488609005
2.19,0.455791955,0.473100138,0.49106558
2.2,0.457768994,0.475075774,0.493036867
2.21,0.46018381,0.476866896,0.494154796
2.22,0.460736925,0.478219847,0.49636617
2.23,0.464094932,0.480765043,0.498033938
2.24,0.465052301,0.481864421,0.499284316
2.25,0.466781613,0.48371784,0.501268563
2.26,0.468626293,0.485120624,0.50219551
2.27,0.470159391,0.487636357,0.505762984
2.28,0.472594875,0.489586986,0.507190048
2.29,0.473613675,0.49079213,0.508593665
2.3,0.474615086,0.492197922,0.510432142
2.31,0.477153617,0.494528243,0.512535532
2.32,0.479195389,0.496405431,0.514233561
2.33,0.480718084,0.498046386,0.515999316
2.34,0.481963751,0.499122527,0.516892186
2.35,0.484479929,0.501498177,0.519114221
2.36,0.485734502,0.502700697,0.520259504
2.37,0.488632627,0.505591288,0.523138523
2.38,0.489389381,0.506221151,0.523631822
2.39,0.491009739,0.508249863,0.526095315
2.4,0.49257108,0.509591072,0.527199163
2.41,0.494925028,0.512148447,0.529971241
2.42,0.495769769,0.513091919,0.531019304
2.43,0.497967018,0.515008572,0.532633326
2.44,0.499155771,0.51650564,0.534458563
2.45,0.500906801,0.518338484,0.536376795
2.46,0.502347071,0.519887308,0.538039991
2.47,0.504510814,0.521421503,0.538899021
2.48,0.505287751,0.522518864,0.540337585
2.49,0.507737667,0.524874558,0.542589844
2.5,0.509038336,0.526095727,0.543724696
2.51,0.510392601,0.527752346,0.54570254
2.52,0.511603957,0.529025611,0.547040525
2.53,0.513158877,0.530541447,0.548512828
2.54,0.514634336,0.532237183,0.550442128
2.55,0.516518288,0.534309341,0.552713192
2.56,0.517834675,0.535554041,0.55387973
2.57,0.519927894,0.537668794,0.556015047
2.58,0.521031003,0.538272039,0.556083586
2.59,0.522188698,0.540121101,0.558669318
2.6,0.525365103,0.542659336,0.56052287
2.61,0.526192844,0.543812623,0.562022407
2.62,0.526803749,0.544681052,0.563165029
2.63,0.528420297,0.546362254,0.564913412
2.64,0.530095487,0.5476309,0.565746379
2.65,0.532536187,0.550102287,0.568247818
2.66,0.533655693,0.551557094,0.570058995
2.67,0.535341686,0.552996858,0.571234285
2.68,0.53666727,0.554371441,0.572659657
2.69,0.53846355,0.55613096,0.574378051
2.7,0.539187927,0.557235079,0.575886286
2.71,0.541279717,0.558856451,0.577003946
2.72,0.542878635,0.560541479,0.578778993
2.73,0.543067386,0.561419504,0.580391804
2.74,0.545370564,0.562767257,0.580718884
2.75,0.546843033,0.564402383,0.582525571
2.76,0.548089205,0.565796987,0.584076875
2.77,0.549792389,0.567457681,0.585690573
2.78,0.55060189,0.568524501,0.587030509
2.79,0.552284973,0.570242949,0.588784843
2.8,0.553806981,0.571479357,0.589715671
2.81,0.555360175,0.572609991,0.590395596
2.82,0.556283257,0.574021475,0.592325312
2.83,0.558807153,0.576194811,0.594123498
2.84,0.5593081,0.577065859,0.595387418
2.85,0.560827984,0.578722118,0.597187194
2.86,0.561908609,0.579965484,0.598602615
2.87,0.562724881,0.580864142,0.599588117
2.88,0.564967727,0.582690134,0.600968474
2.89,0.565639255,0.583810179,0.602564836
2.9,0.567071774,0.584909268,0.603307849
2.91,0.568272665,0.586579771,0.605476646
2.92,0.570577228,0.588039205,0.60603559
2.93,0.571313172,0.589055563,0.607348952
2.94,0.572957264,0.590701376,0.608995011
2.95,0.573714645,0.591936219,0.610736524
2.96,0.575334835,0.593442238,0.612119531
2.97,0.576725788,0.594466636,0.612753214
2.98,0.578306281,0.595950867,0.614133803
2.99,0.580234351,0.597654633,0.615597921
3,0.58104096,0.599130044,0.617782281
3.01,0.582145135,0.600289228,0.618998829
3.02,0.58366346,0.601354252,0.61958125
3.03,0.584304527,0.602416448,0.621089793
3.04,0.585728071,0.603798481,0.622426384
3.05,0.586810925,0.605113341,0.623986601
3.06,0.588043366,0.606117468,0.624747095
3.07,0.589220999,0.607286996,0.625906912
3.08,0.591215123,0.60914515,0.627618949
3.09,0.591463211,0.609655832,0.628408034
3.1,0.59362336,0.611527913,0.629972493
3.11,0.595057888,0.612281755,0.630004164
3.12,0.59565205,0.613590348,0.632068865
3.13,0.596543834,0.614292567,0.632569371
3.14,0.59845584,0.616315877,0.634708921
3.15,0.599595067,0.617388058,0.635709056
3.16,0.601021187,0.618886827,0.637283531
3.17,0.600969079,0.619204986,0.637994247
3.18,0.603174805,0.621323954,0.6400192
3.19,0.604189902,0.622108538,0.640558592
3.2,0.605522194,0.624219571,0.643494288
3.21,0.607166451,0.624832131,0.643011799
3.22,0.608481209,0.626145149,0.644321866
3.23,0.608800053,0.62644108,0.644593286
3.24,0.610360731,0.628325175,0.646818358
3.25,0.611853682,0.629566363,0.647791812
3.26,0.612030995,0.630411742,0.649344507
3.27,0.614606258,0.632097016,0.650085534
3.28,0.614370662,0.632593032,0.65135588
3.29,0.615938108,0.633796682,0.652173051
3.3,0.617147463,0.635062698,0.653497996
3.31,0.618109665,0.63607935,0.654571449
3.32,0.619222255,0.63708163,0.655456098
3.33,0.620642544,0.638497067,0.656865226
3.34,0.62150244,0.639356394,0.65772324
3.35,0.622232828,0.64011384,0.658508695
3.36,0.62499688,0.642400157,0.660288035
3.37,0.625444917,0.643258578,0.6615796
3.38,0.625885264,0.64352766,0.661667359
3.39,0.627338733,0.644915805,0.66298536
3.4,0.628158262,0.645875992,0.664093466
3.41,0.629097454,0.647001325,0.665414733
3.42,0.630217111,0.647689847,0.665647014
3.43,0.631729078,0.649516787,0.667805346
3.44,0.632835308,0.650467734,0.668591444
3.45,0.63301148,0.650592246,0.668661286
3.46,0.63451665,0.65268299,0.671369436
3.47,0.635622619,0.653225803,0.671316497
3.48,0.636586842,0.654127658,0.672151803
3.49,0.637767905,0.655486091,0.673696515
3.5,0.639252004,0.65667965,0.674582417
3.51,0.639845934,0.657362263,0.675358116
3.52,0.640645666,0.658421752,0.676691074
3.53,0.642623126,0.659981305,0.677808353
3.54,0.643010747,0.660702023,0.678880042
3.55,0.644292309,0.66166643,0.679509066
3.56,0.644965562,0.662734932,0.680993865
3.57,0.646156986,0.663900009,0.682130243
3.58,0.646997093,0.664339282,0.682146312
3.59,0.647742799,0.665303727,0.683340749
3.6,0.648615966,0.666483174,0.684842563
3.61,0.649945929,0.667569543,0.685671031
3.62,0.650553592,0.668007271,0.685929213
3.63,0.652014564,0.669339461,0.687124704
3.64,0.652955645,0.670435835,0.688383984
3.65,0.653250105,0.670970346,0.689171272
3.66,0.654700134,0.672312087,0.690397815
3.67,0.656118396,0.673450413,0.691240272
3.68,0.657202923,0.674477388,0.69220591
3.69,0.657578596,0.675270634,0.693438672
3.7,0.659473785,0.676811206,0.694604424
3.71,0.65923186,0.676767002,0.694768569
3.72,0.660483517,0.677670647,0.695305022
3.73,0.661175593,0.67869792,0.69668462
3.74,0.662434064,0.679930471,0.697888998
3.75,0.663088744,0.680671062,0.698719588
3.76,0.664137941,0.681511191,0.699338909
3.77,0.665614477,0.682884231,0.700602058
3.78,0.666030258,0.68367067,0.701778305
3.79,0.66772313,0.684960267,0.702642378
3.8,0.66774699,0.685068594,0.702839528
3.81,0.669025978,0.686390521,0.70420576
3.82,0.669026493,0.686890777,0.705232071
3.83,0.670367684,0.688041762,0.706181813
3.84,0.671438768,0.688641913,0.706285826
3.85,0.672198707,0.689643851,0.707541737
3.86,0.672956723,0.690377006,0.708248234
3.87,0.67463999,0.691353675,0.708481429
3.88,0.674681128,0.692113954,0.709997221
3.89,0.675740224,0.693076272,0.710857075
3.9,0.676746198,0.693931085,0.711552356
3.91,0.678141894,0.695131788,0.71254734
3.92,0.678590391,0.695770155,0.713384857
3.93,0.680187277,0.696848036,0.713916889
3.94,0.680294577,0.69713682,0.714396031
3.95,0.681307733,0.698256597,0.715627096
3.96,0.681216772,0.698854011,0.716947892
3.97,0.683071331,0.699928542,0.717201765
3.98,0.683465544,0.700621164,0.718207407
3.99,0.684193987,0.701550163,0.719346619
4,0.685253691,0.702391671,0.719958267
4.01,0.685189201,0.702713492,0.720685981
4.02,0.687337399,0.704138293,0.72134986
4.03,0.688088502,0.704957843,0.722240757
4.04,0.688650475,0.705765958,0.723306824
4.05,0.688786956,0.705897986,0.723434092
4.06,0.690027318,0.707114616,0.72462505
4.07,0.690574972,0.707464575,0.724767253
4.08,0.691165495,0.708422455,0.726110286
4.09,0.692447008,0.709118636,0.726191656
4.1,0.693124123,0.710497954,0.728307277
4.11,0.694395839,0.711020176,0.728042511
4.12,0.694439801,0.71155272,0.729087349
4.13,0.696027532,0.71236725,0.729090555
4.14,0.696744695,0.713759491,0.731189796
4.15,0.697532464,0.714301701,0.731474084
4.16,0.697426348,0.714722524,0.732447646
4.17,0.698827719,0.715781823,0.733147247
4.18,0.69960704,0.716669308,0.734147698
4.19,0.700204668,0.717020598,0.734240374
4.2,0.701288862,0.718115514,0.735345903
4.21,0.701580737,0.718653867,0.736142475
4.22,0.701896803,0.718608975,0.735719064
4.23,0.703280128,0.720138283,0.737400541
4.24,0.703795226,0.720435017,0.737468222
4.25,0.70480187,0.7211932,0.737965737
4.26,0.705809868,0.722579617,0.739747809
4.27,0.706050552,0.722895133,0.740141584
4.28,0.70746193,0.724567035,0.742085708
4.29,0.706674128,0.723999779,0.741750206
4.3,0.708612032,0.725154191,0.742082517
4.31,0.708919058,0.725624317,0.742723226
4.32,0.709977682,0.726768217,0.743955837
4.33,0.710062689,0.727027286,0.744397196
4.34,0.711731278,0.728032728,0.744707544
4.35,0.711687915,0.7283555,0.745413437
4.36,0.712818851,0.729578572,0.746732345
4.37,0.713361441,0.730119868,0.747271988
4.38,0.713821216,0.730543955,0.747658459
4.39,0.715374061,0.731241684,0.747461264
4.4,0.715873528,0.732130735,0.748757136
4.41,0.715903097,0.732647742,0.749784036
4.42,0.715782982,0.73282473,0.750272217
4.43,0.717262424,0.733851746,0.750824758
4.44,0.718167348,0.73491894,0.752061271
4.45,0.719231172,0.735629906,0.752402536
4.46,0.719499873,0.73567104,0.752205663
4.47,0.71969145,0.736063055,0.752807083
4.48,0.720686894,0.737111865,0.753911173
4.49,0.720951927,0.737712412,0.754862541
4.5,0.721981257,0.738348768,0.755087336
4.51,0.722786793,0.739197632,0.75598108
4.52,0.723803938,0.739906535,0.756367368
4.53,0.724968178,0.741119875,0.757631419
4.54,0.724629092,0.740835616,0.757404604
4.55,0.725109394,0.741363087,0.757981114
4.56,0.726137633,0.742347735,0.758919708
4.57,0.726897461,0.742940059,0.759336718
4.58,0.7280824,0.743889552,0.760039887
4.59,0.728127264,0.744535512,0.761313518
4.6,0.728417938,0.744766824,0.761482651
4.61,0.729415977,0.745605385,0.762154118
4.62,0.730155682,0.746370696,0.762945807
4.63,0.73051809,0.746813834,0.763473089
4.64,0.730959504,0.7475078,0.764430736
4.65,0.732315847,0.748231852,0.764493773
4.66,0.732464156,0.748565003,0.765019775
4.67,0.73316468,0.74937547,0.765944692
4.68,0.733822289,0.749821025,0.766168565
4.69,0.733665505,0.750047636,0.766795567
4.7,0.734650971,0.750912813,0.767534619
4.71,0.735759421,0.751913562,0.768422378
4.72,0.736059138,0.751991645,0.768269022
4.73,0.737069534,0.752971746,0.769217046
4.74,0.737516125,0.753118219,0.769050374
4.75,0.737972738,0.753807197,0.76998141
4.76,0.738964243,0.754701853,0.770774625
4.77,0.739359175,0.755207294,0.771395116
