flow depth [m],16th percentile vulnerability,median vulnerability,84th percentile vulnerability
0.000001,0.121113584,0.124138635,0.127239242
0.01,0.121149104,0.124157317,0.127240226
0.02,0.121137759,0.12409304,0.127120419
0.03,0.121175328,0.124078178,0.127050569
0.04,0.121055938,0.124087376,0.127194727
0.05,0.121171144,0.124090892,0.127080994
0.06,0.121225315,0.124135331,0.127115201
0.07,0.121228818,0.124209242,0.12726294
0.08,0.121283379,0.124289232,0.127369581
0.09,0.121398506,0.124437081,0.127551711
0.1,0.121619365,0.124648041,0.12775214
0.11,0.121944128,0.12508923,0.128315449
0.12,0.121978907,0.125305908,0.128723655
0.13,0.122545098,0.125937292,0.129423385
0.14,0.122952354,0.126557972,0.130269326
0.15,0.123306294,0.127151176,0.131115948
0.16,0.1240784,0.128060415,0.132170223
0.17,0.12462019,0.128989128,0.133511231
0.18,0.125520814,0.130249069,0.135155433
0.19,0.126189811,0.131427874,0.136883366
0.2,0.127332716,0.13304075,0.139004663
0.21,0.128405087,0.134547516,0.140983775
0.22,0.12989073,0.136417708,0.143272666
0.23,0.131347647,0.138327733,0.145678755
0.24,0.132690699,0.140324817,0.148398151
0.25,0.134575497,0.142581513,0.151063813
0.26,0.136298811,0.144909621,0.154064426
0.27,0.138415746,0.147343171,0.15684639
0.28,0.140534834,0.150034746,0.160176835
0.29,0.142539304,0.152584859,0.16333838
0.3,0.145059707,0.155488072,0.166666133
0.31,0.147702379,0.158456649,0.169993942
0.32,0.150218034,0.161594491,0.173832522
0.33,0.153098089,0.164681884,0.17714214
0.34,0.155543023,0.167879894,0.181195263
0.35,0.158716732,0.171222422,0.184713468
0.36,0.161457396,0.1746138,0.188842258
0.37,0.164598997,0.178107008,0.19272357
0.38,0.167723867,0.181512148,0.196433939
0.39,0.170653343,0.185038292,0.200635797
0.4,0.174292368,0.188773653,0.204458132
0.41,0.177353651,0.192294696,0.208494439
0.42,0.180772351,0.195903144,0.212300396
0.43,0.184398127,0.199715344,0.216304901
0.44,0.187743077,0.20338971,0.220340344
0.45,0.191007752,0.207353778,0.225098662
0.46,0.194797134,0.211291072,0.229181591
0.47,0.198588002,0.214889794,0.232529775
0.48,0.202047958,0.218651044,0.236618473
0.49,0.204960051,0.222219297,0.240931906
0.5,0.208741269,0.225963051,0.244605682
0.51,0.212275116,0.229696169,0.248546937
0.52,0.216275638,0.233753184,0.252643116
0.53,0.219256904,0.237141399,0.256484708
0.54,0.222938348,0.240894296,0.260296455
0.55,0.226289398,0.244527738,0.264236041
0.56,0.229817562,0.248327633,0.268328552
0.57,0.233631433,0.252147212,0.272130406
0.58,0.237013603,0.2555582,0.275553777
0.59,0.240433011,0.259326368,0.279704377
0.6,0.243647631,0.262547638,0.28291374
0.61,0.247476247,0.266122189,0.286172999
0.62,0.250233501,0.269364444,0.289957992
0.63,0.25375484,0.272715885,0.293093735
0.64,0.256875752,0.275907991,0.296350353
0.65,0.260464142,0.279419219,0.299753738
0.66,0.263741985,0.2828271,0.303293268
0.67,0.266475214,0.285855378,0.306645018
0.68,0.269797414,0.289043588,0.3096627
0.69,0.272694581,0.292017198,0.312708978
0.7,0.27587107,0.294943766,0.315335078
0.71,0.27855981,0.29768248,0.318117889
0.72,0.281770495,0.301012916,0.321569423
0.73,0.284734143,0.303969088,0.324503431
0.74,0.287695301,0.306652026,0.326857842
0.75,0.29043724,0.309532716,0.329883668
0.76,0.293270788,0.312236517,0.332428754
0.77,0.2959203,0.31506982,0.335458539
0.78,0.298594428,0.317735331,0.338103231
0.79,0.301050864,0.319998962,0.340139651
0.8,0.303893718,0.322626848,0.342514757
0.81,0.306212537,0.32507246,0.345093984
0.82,0.308509742,0.327506612,0.347673238
0.83,0.311199914,0.329978089,0.349889362
0.84,0.313674362,0.332350332,0.352138257
0.85,0.315501866,0.334451626,0.354539553
0.86,0.318377024,0.337042073,0.356801373
0.87,0.320713434,0.339328921,0.359024925
0.88,0.322901686,0.341413038,0.360985611
0.89,0.32577036,0.343891711,0.363021083
0.9,0.327601889,0.345855117,0.365125373
0.91,0.329869091,0.348005121,0.367138261
0.92,0.331855428,0.34994506,0.369020769
0.93,0.333862976,0.351964076,0.371046566
0.94,0.336050917,0.353950617,0.372803742
0.95,0.338034015,0.355906571,0.374724086
0.96,0.340157483,0.357843331,0.376448721
0.97,0.342221054,0.359888913,0.378468911
0.98,0.344165484,0.361780182,0.380296415
0.99,0.346028302,0.36362171,0.382109635
1,0.347601668,0.36521408,0.383718883
1.01,0.349995208,0.36719671,0.385243628
1.02,0.351813045,0.369130798,0.387301005
1.03,0.353720394,0.370866739,0.388844241
1.04,0.3550667,0.372398196,0.390575676
1.05,0.357057093,0.374203105,0.392172475
1.06,0.358735717,0.375928428,0.393945114
1.07,0.360715588,0.377629883,0.395337306
1.08,0.362357754,0.379228637,0.396885006
1.09,0.363762476,0.380659266,0.398340912
1.1,0.365903046,0.382697598,0.400263001
1.11,0.367189192,0.383913777,0.401400127
1.12,0.368682169,0.385529918,0.403147562
1.13,0.370271842,0.387104423,0.404702214
1.14,0.372303989,0.388890854,0.406216695
1.15,0.373220475,0.389934417,0.407396859
1.16,0.375092111,0.391758992,0.409166452
1.17,0.376638636,0.393312875,0.410725303
1.18,0.378082913,0.394601676,0.411842159
1.19,0.379967749,0.39619719,0.413119833
1.2,0.381437675,0.397574905,0.414394842
1.21,0.38273787,0.399203551,0.416377598
1.22,0.384273651,0.400598939,0.417617783
1.23,0.385583579,0.401815565,0.418730873
1.24,0.38724599,0.403166211,0.419740934
1.25,0.389212011,0.405040743,0.421513208
1.26,0.390010352,0.406102922,0.422859502
1.27,0.391598288,0.407591441,0.424237765
1.28,0.393113794,0.408938671,0.425400581
1.29,0.394459755,0.410485974,0.42716331
1.3,0.39556432,0.411610916,0.428308465
1.31,0.397235453,0.413077685,0.429551724
1.32,0.398256046,0.414238437,0.430862217
1.33,0.399853415,0.415772495,0.432325349
1.34,0.40131916,0.417125272,0.433553914
1.35,0.403035122,0.418741456,0.435059867
1.36,0.404342556,0.419986577,0.436235864
1.37,0.405604846,0.421200449,0.437395707
1.38,0.406869186,0.422596749,0.438932262
1.39,0.408440107,0.424097997,0.440356144
1.4,0.409434469,0.425173886,0.441518355
1.41,0.410556659,0.426304584,0.442656559
1.42,0.412101862,0.427775011,0.444044246
1.43,0.413617015,0.429161352,0.445289867
1.44,0.414854942,0.430562103,0.446863965
1.45,0.415650834,0.431578519,0.44811655
1.46,0.417362088,0.433028749,0.449283495
1.47,0.418472996,0.434263843,0.450650548
1.48,0.420085262,0.435732852,0.451963293
1.49,0.421122876,0.436926929,0.453324083
1.5,0.422642192,0.438239668,0.454412763
1.51,0.42411043,0.439569108,0.455591249
1.52,0.425504729,0.440977746,0.457013423
1.53,0.426839966,0.44231796,0.458357215
1.54,0.427497621,0.44329843,0.459683256
1.55,0.429076432,0.444573926,0.460631163
1.56,0.430411563,0.4461491,0.462462063
1.57,0.431809348,0.447501082,0.463763045
1.58,0.432753702,0.448731671,0.465299572
1.59,0.434350421,0.450033344,0.466282524
1.6,0.435690121,0.451393251,0.467662353
1.61,0.436885056,0.452607279,0.4688953
1.62,0.438351526,0.454032427,0.470274273
1.63,0.439348149,0.455094958,0.471406154
1.64,0.440710327,0.45664129,0.473148131
1.65,0.441992894,0.457747287,0.474063231
1.66,0.443181153,0.459012527,0.47540943
1.67,0.44468564,0.460455341,0.476784275
1.68,0.445770536,0.461358784,0.477492141
1.69,0.447077266,0.463070798,0.479636475
1.7,0.448534603,0.464216236,0.480446129
1.71,0.449720551,0.465581524,0.48200189
1.72,0.451004665,0.46696724,0.483494785
1.73,0.45216966,0.468089562,0.48456997
1.74,0.453574062,0.469288339,0.485547044
1.75,0.454884905,0.470902702,0.487484531
1.76,0.455836037,0.472102357,0.488949133
1.77,0.457205235,0.47346042,0.49029353
1.78,0.458870285,0.474844592,0.491375002
1.79,0.459884442,0.476005207,0.492691068
1.8,0.461192395,0.477438531,0.49425696
1.81,0.462425382,0.478815493,0.495786531
1.82,0.463741806,0.480021119,0.496871906
1.83,0.464948093,0.481254595,0.498132993
1.84,0.465793609,0.48260009,0.500012972
1.85,0.467958763,0.484185929,0.500975797
1.86,0.469243127,0.485408927,0.502131653
1.87,0.470047062,0.486890725,0.504337963
1.88,0.471223779,0.487984796,0.505341987
1.89,0.47229563,0.489037935,0.506373734
1.9,0.473821049,0.490777709,0.508341198
1.91,0.474899996,0.491914285,0.509538146
1.92,0.476127333,0.493208129,0.510901688
1.93,0.477805952,0.49478082,0.512358749
1.94,0.478786624,0.496074508,0.513986618
1.95,0.479946066,0.497274056,0.515227656
1.96,0.481489134,0.498719278,0.516566004
1.97,0.482642298,0.499985284,0.517951463
1.98,0.483861896,0.501457742,0.519693469
1.99,0.484849943,0.502434526,0.520656869
2,0.486087116,0.503959132,0.52248825
2.01,0.487690527,0.505283987,0.523512133
2.02,0.488768091,0.506889227,0.525682207
2.03,0.490233273,0.508372289,0.527182463
2.04,0.491183896,0.509242159,0.527964329
2.05,0.492269884,0.510703796,0.529827999
2.06,0.4938191,0.512043951,0.530941406
2.07,0.49498065,0.513317741,0.532334149
2.08,0.496242962,0.514619554,0.533676658
2.09,0.497731167,0.516330251,0.535624339
2.1,0.498619839,0.517565251,0.537230506
2.11,0.500006672,0.518951463,0.538614054
2.12,0.500844509,0.520060731,0.540014233
2.13,0.502323934,0.521323721,0.54104215
2.14,0.50342998,0.522836095,0.542990272
2.15,0.504984687,0.524166083,0.544076067
2.16,0.506225588,0.525544567,0.545600812
2.17,0.506907513,0.526707459,0.547280796
2.18,0.508344669,0.528103205,0.548629723
2.19,0.50999377,0.529709063,0.550186508
2.2,0.510796046,0.530845547,0.551682021
2.21,0.511825311,0.5323283,0.553652609
2.22,0.513059978,0.533619244,0.555002359
2.23,0.514513829,0.535150678,0.556615259
2.24,0.515865737,0.536577352,0.558120522
2.25,0.516686841,0.537671601,0.559508639
2.26,0.518040876,0.539114009,0.561044366
2.27,0.519247199,0.540334119,0.562277391
2.28,0.520383586,0.541806656,0.564111667
2.29,0.521785209,0.543335208,0.565775233
2.3,0.522933799,0.54452465,0.567006943
2.31,0.5238298,0.545845635,0.568786765
2.32,0.524658771,0.546919507,0.570124744
2.33,0.526112055,0.548195911,0.57120675
2.34,0.527440658,0.549697828,0.572894215
2.35,0.528520286,0.551150836,0.574750397
2.36,0.529721499,0.552676468,0.576626169
2.37,0.531400781,0.554160048,0.577894069
2.38,0.53198834,0.555170489,0.579362833
2.39,0.533620978,0.556781222,0.580946668
2.4,0.534386243,0.558016844,0.582692392
2.41,0.53553731,0.559308027,0.584133846
2.42,0.536596628,0.560774975,0.586042767
2.43,0.537993781,0.562051171,0.587184332
2.44,0.539229047,0.563506665,0.58887733
2.45,0.540354029,0.564644162,0.59002619
2.46,0.541775089,0.566198345,0.591722604
2.47,0.543031324,0.567685711,0.593459441
2.48,0.543813509,0.568616482,0.594550702
2.49,0.544786007,0.57017714,0.596751691
2.5,0.546404342,0.571474199,0.5976943
2.51,0.547202365,0.572808226,0.599612291
2.52,0.548514339,0.574366031,0.601436123
2.53,0.549434461,0.575605708,0.60302357
2.54,0.550438451,0.576778196,0.60437836
2.55,0.551451114,0.577943798,0.605709238
2.56,0.553042395,0.57947959,0.607180567
2.57,0.553917018,0.580965408,0.609334602
2.58,0.554934904,0.581913307,0.610203278
2.59,0.555555771,0.583175843,0.612169078
2.6,0.557293795,0.584755185,0.613569772
2.61,0.558737277,0.586394619,0.615420992
2.62,0.559584454,0.587380239,0.616556701
2.63,0.561154218,0.58910073,0.618439029
2.64,0.561980635,0.590306868,0.620060865
2.65,0.562969165,0.591590881,0.621667743
2.66,0.564374604,0.593070861,0.623226211
2.67,0.564834392,0.593858015,0.624372997
2.68,0.566099299,0.595334008,0.626078467
2.69,0.567357901,0.596599285,0.627347758
2.7,0.568355534,0.597856681,0.628889119
2.71,0.569609368,0.599295998,0.630529821
2.72,0.570469063,0.600567681,0.632254338
2.73,0.571970184,0.601790089,0.633164667
2.74,0.572973541,0.603295503,0.635222114
2.75,0.574395175,0.604609116,0.636412351
2.76,0.57512301,0.606079529,0.63870231
2.77,0.576154211,0.607206807,0.639933024
2.78,0.57666069,0.608045897,0.641139269
2.79,0.578499462,0.609946502,0.643102993
2.8,0.579205694,0.610706932,0.643921427
2.81,0.580248038,0.612461677,0.646463721
2.82,0.580652262,0.613048528,0.647252275
2.83,0.582486172,0.614964089,0.64925289
2.84,0.583698381,0.6163244,0.65077406
2.85,0.58424525,0.617238081,0.652094045
2.86,0.585151985,0.618528263,0.653808279
2.87,0.586883374,0.620049471,0.655089859
2.88,0.587521959,0.621244758,0.656903191
2.89,0.588507334,0.622508565,0.65847423
2.9,0.590568545,0.624023186,0.659372972
2.91,0.591003214,0.62508757,0.661137641
2.92,0.59172985,0.626188864,0.662654577
2.93,0.593105182,0.627446015,0.663775185
2.94,0.59410021,0.628806772,0.665540846
2.95,0.595231472,0.629974105,0.666744607
2.96,0.595757616,0.63096953,0.668262624
2.97,0.597000266,0.632401414,0.669901793
2.98,0.598910695,0.634080985,0.671316607
2.99,0.59894721,0.63463467,0.672448519
3,0.599790465,0.636331666,0.675099076
3.01,0.6016913,0.637569671,0.67558744
3.02,0.602520707,0.638597433,0.6768343
3.03,0.603753825,0.640211403,0.678870466
3.04,0.604698379,0.641314791,0.680148445
3.05,0.605224529,0.642507575,0.682087333
3.06,0.606967289,0.644070094,0.683440926
3.07,0.607056264,0.644720214,0.68472097
3.08,0.609358726,0.646943755,0.686847015
3.09,0.610086335,0.647686282,0.687603535
3.1,0.610245598,0.648552954,0.689265003
3.11,0.61167902,0.649901332,0.690512062
3.12,0.612695389,0.651166252,0.692052683
3.13,0.613486193,0.652321091,0.693614316
3.14,0.614443867,0.653557494,0.695160975
3.15,0.615660959,0.654496107,0.695780928
3.16,0.616413396,0.655837163,0.697782344
3.17,0.617637923,0.657103843,0.699091563
3.18,0.618454112,0.658139467,0.700371377
3.19,0.619603759,0.659259918,0.701454168
3.2,0.620275865,0.660528833,0.703394029
3.21,0.621989866,0.661845949,0.704255944
3.22,0.622566273,0.662774067,0.70557864
3.23,0.62362194,0.664072201,0.707146204
3.24,0.624456926,0.665227077,0.70865907
3.25,0.625132785,0.666382309,0.710353693
3.26,0.626775409,0.667541361,0.710958762
3.27,0.627542347,0.668729021,0.712618847
3.28,0.62854997,0.669971354,0.714122403
3.29,0.629909437,0.671478179,0.71579011
3.3,0.630655598,0.672440357,0.716993611
3.31,0.631272906,0.673355458,0.71824336
3.32,0.632169332,0.674433222,0.719522678
3.33,0.633522207,0.675756081,0.720805483
3.34,0.63381109,0.67642777,0.721909942
3.35,0.635215306,0.678054573,0.723782944
3.36,0.636314628,0.679196513,0.724968251
3.37,0.637198831,0.680189683,0.726081063
3.38,0.63780437,0.680940345,0.726993691
3.39,0.638996974,0.682299661,0.728536826
3.4,0.640333369,0.68352021,0.729619757
3.41,0.64073627,0.684378777,0.730993909
3.42,0.641948903,0.685853482,0.732760812
3.43,0.642422134,0.686856435,0.734364115
3.44,0.643341479,0.687959469,0.735671872
3.45,0.644046532,0.688878393,0.736830984
3.46,0.645591078,0.690059339,0.737590571
3.47,0.646337168,0.691107919,0.738979869
3.48,0.647355604,0.692374723,0.740524611
3.49,0.647736552,0.693162129,0.741773387
3.5,0.649288511,0.694475146,0.742806502
3.51,0.650276174,0.695723081,0.74434621
3.52,0.650695661,0.696483576,0.745493479
3.53,0.651793947,0.697698655,0.746836351
3.54,0.653457003,0.699093944,0.747918134
3.55,0.653939048,0.699885244,0.749059652
3.56,0.65448124,0.70077788,0.750349449
3.57,0.655776796,0.702111109,0.751719202
3.58,0.65679454,0.703061989,0.752588717
3.59,0.657976269,0.704570778,0.754464872
3.6,0.658702665,0.705287081,0.755166014
3.61,0.659229143,0.706147777,0.756405702
3.62,0.660112567,0.707310256,0.757882556
3.63,0.66123921,0.708479332,0.759094374
3.64,0.661925953,0.709482399,0.760455565
3.65,0.662769486,0.710317615,0.76127692
3.66,0.663385487,0.711386241,0.762860199
3.67,0.664887131,0.712652714,0.763849782
3.68,0.665291774,0.713302367,0.764777629
3.69,0.666599418,0.714742275,0.766362086
3.7,0.666737889,0.715288878,0.767375288
3.71,0.668295136,0.716721395,0.768656736
3.72,0.669036207,0.717425087,0.769313754
3.73,0.670306066,0.718607054,0.77038852
3.74,0.670266606,0.719116622,0.7715269
3.75,0.671266211,0.72057203,0.773499459
3.76,0.672220567,0.721316774,0.773998764
3.77,0.673347542,0.722568511,0.775387479
3.78,0.674066253,0.723047776,0.775588578
3.79,0.67502387,0.724480848,0.77756139
3.8,0.676626369,0.726082832,0.779154202
3.81,0.676326622,0.726111397,0.779560857
3.82,0.677379522,0.727290495,0.780879029
3.83,0.67787191,0.72817029,0.782200831
3.84,0.679518527,0.729580245,0.783330127
3.85,0.679857676,0.73016261,0.784189774
3.86,0.680565054,0.731226577,0.785659363
3.87,0.68155755,0.732128653,0.786452097
3.88,0.683056363,0.733382985,0.787417602
3.89,0.683061463,0.733883072,0.788485946
3.9,0.683567423,0.734464084,0.789150379
3.91,0.684824186,0.735748725,0.790460089
3.92,0.685409936,0.736755401,0.791947261
3.93,0.687073675,0.738104763,0.792926088
3.94,0.687319753,0.738665846,0.79384774
3.95,0.688419003,0.739788506,0.794991177
3.96,0.688813986,0.740598442,0.796276009
3.97,0.689982487,0.741675403,0.79724111
3.98,0.691104927,0.742759025,0.798273818
3.99,0.692031355,0.743632111,0.799080436
4,0.692061019,0.743920477,0.799666012
4.01,0.692971785,0.745211082,0.801388411
4.02,0.693701306,0.745946661,0.802126818
4.03,0.694810225,0.74688716,0.80286733
4.04,0.695344348,0.747706674,0.804012101
4.05,0.696551667,0.749003734,0.805405572
4.06,0.69727324,0.74976709,0.806212912
4.07,0.698140994,0.750877258,0.80759712
4.08,0.698800321,0.751595795,0.808380052
4.09,0.699542528,0.75234585,0.809134907
4.1,0.700644312,0.753258436,0.80982356
4.11,0.70099339,0.753701508,0.810372782
4.12,0.701493893,0.754695836,0.811932664
4.13,0.702212401,0.755563709,0.812968437
4.14,0.703336504,0.756700918,0.814114263
4.15,0.704820769,0.757843301,0.814854633
4.16,0.705032138,0.758542501,0.81611418
4.17,0.705487366,0.758972085,0.816511612
4.18,0.706414954,0.760155345,0.817984026
4.19,0.706707278,0.760695206,0.818807468
4.2,0.707301397,0.761529213,0.819914601
4.21,0.708343198,0.76238935,0.82055919
4.22,0.709137744,0.763245407,0.82148152
4.23,0.709564742,0.763909014,0.822415415
4.24,0.710230784,0.764640971,0.823219478
4.25,0.711167674,0.765464104,0.823905974
4.26,0.712726053,0.766926444,0.82524859
4.27,0.71307895,0.767582491,0.826251961
4.28,0.7143462,0.768719556,0.827231608
4.29,0.714467434,0.768953783,0.827595342
4.3,0.715368515,0.769744285,0.828253204
4.31,0.715863053,0.770490896,0.829287416
4.32,0.716682979,0.771492259,0.830493152
4.33,0.717830744,0.772654222,0.831664778
4.34,0.718182906,0.773409643,0.832883199
4.35,0.719256045,0.774155045,0.833244348
4.36,0.719585898,0.774960739,0.834596883
4.37,0.720148103,0.775426376,0.834947788
4.38,0.720980137,0.776363736,0.836001743
4.39,0.721746787,0.776836626,0.83613139
4.4,0.72285165,0.778076496,0.837520442
4.41,0.723063867,0.778533414,0.838258285
4.42,0.723728964,0.779192383,0.838906276
4.43,0.724716174,0.780252316,0.840044279
4.44,0.72525762,0.781147193,0.84134371
4.45,0.726246854,0.781903602,0.841825667
4.46,0.726914992,0.782458693,0.842246497
4.47,0.727437963,0.783391341,0.843648565
4.48,0.727713296,0.783730178,0.844059047
4.49,0.728533539,0.784470702,0.844702747
4.5,0.729427804,0.785144587,0.845117254
4.51,0.730130601,0.785989654,0.846122237
4.52,0.731348159,0.787300418,0.847533341
4.53,0.731418274,0.787743952,0.848407205
4.54,0.731693202,0.788396572,0.849494232
4.55,0.732345378,0.788831084,0.849673525
4.56,0.73388412,0.7899978,0.850402002
4.57,0.734320623,0.790656227,0.851313786
4.58,0.735132419,0.79158284,0.852368057
4.59,0.735158214,0.791665761,0.852516731
4.6,0.735987725,0.79249862,0.853348557
4.61,0.737149381,0.793433523,0.854015171
4.62,0.737413265,0.79406421,0.855067301
4.63,0.738263712,0.795062058,0.856230187
4.64,0.73907308,0.795818112,0.856919952
4.65,0.739159162,0.796153145,0.857541735
4.66,0.740503917,0.797293828,0.858439008
4.67,0.740028704,0.797418376,0.859258652
4.68,0.741857694,0.798652433,0.859795233
4.69,0.742544168,0.799132312,0.860032952
4.7,0.742976484,0.799746028,0.860853235
4.71,0.743114092,0.800315288,0.861919545
4.72,0.743982273,0.801077142,0.8625536
4.73,0.744710311,0.801682147,0.863012443
4.74,0.745211953,0.802377005,0.863927176
4.75,0.746345689,0.803398163,0.864811867
4.76,0.746870487,0.803953808,0.865400008
4.77,0.746483997,0.804031081,0.866014519
4.78,0.747659869,0.805061843,0.866870884
