flow depth [m],16th percentile vulnerability,median vulnerability,84th percentile vulnerability
0.000001,0.003564845,0.00367737,0.003793446
0.01,0.003734291,0.003878571,0.004028424
0.02,0.004054552,0.004270037,0.004496974
0.03,0.004477001,0.00479188,0.005128906
0.04,0.005013407,0.005451922,0.005928795
0.05,0.005686403,0.006250648,0.006870882
0.06,0.006475066,0.007166091,0.007930863
0.07,0.007365621,0.008203856,0.009137485
0.08,0.008401802,0.009370623,0.01045116
0.09,0.009497331,0.010631468,0.011901038
0.1,0.010737842,0.012025756,0.013468145
0.11,0.012134717,0.013550926,0.015132418
0.12,0.013551837,0.015131129,0.016894468
0.13,0.015142626,0.016844842,0.018738408
0.14,0.016796696,0.018668211,0.020748254
0.15,0.018589569,0.020588154,0.022801609
0.16,0.020405928,0.022516104,0.024844492
0.17,0.022232098,0.024447845,0.026884422
0.18,0.024159715,0.026541061,0.02915713
0.19,0.026261195,0.028752067,0.031479198
0.2,0.028331898,0.030949433,0.033808799
0.21,0.030461209,0.033129305,0.036031099
0.22,0.032580154,0.035472206,0.038620977
0.23,0.034912106,0.0378176,0.040964898
0.24,0.037184383,0.040262754,0.043595973
0.25,0.039293636,0.042483938,0.045933264
0.26,0.041599225,0.044930369,0.048528262
0.27,0.043962069,0.047390043,0.051085315
0.28,0.046310746,0.049814548,0.053583441
0.29,0.048597987,0.052255636,0.056188572
0.3,0.05104489,0.054798623,0.058828397
0.31,0.053264668,0.057123734,0.061262393
0.32,0.05589232,0.059682481,0.063729661
0.33,0.058177264,0.062181806,0.066461994
0.34,0.060433741,0.064605829,0.06906594
0.35,0.063045001,0.067205867,0.071641343
0.36,0.065184058,0.069558707,0.074226948
0.37,0.067770808,0.072149711,0.07681155
0.38,0.069950097,0.074536024,0.079422605
0.39,0.072332372,0.076956255,0.081875722
0.4,0.074640685,0.079359124,0.084375842
0.41,0.077194909,0.081987261,0.087077127
0.42,0.079393081,0.084337103,0.089589002
0.43,0.081922448,0.086836567,0.092045459
0.44,0.084173343,0.089296924,0.094732374
0.45,0.086449589,0.09172394,0.097320083
0.46,0.088742708,0.093920363,0.099400105
0.47,0.091188081,0.096413942,0.101939291
0.48,0.093510115,0.09884655,0.104487524
0.49,0.095724145,0.101161411,0.10690752
0.5,0.098102318,0.103724382,0.109668638
0.51,0.100407705,0.106083055,0.112079194
0.52,0.102675515,0.108390061,0.114422657
0.53,0.104741194,0.11051426,0.116605522
0.54,0.107382274,0.113191334,0.119314647
0.55,0.109434465,0.115407579,0.121706716
0.56,0.111518842,0.117688281,0.124199027
0.57,0.113946132,0.120070329,0.126523681
0.58,0.116705457,0.122851419,0.129321041
0.59,0.118677437,0.124918101,0.13148693
0.6,0.121528558,0.127632882,0.134043824
0.61,0.123039697,0.12950985,0.136320242
0.62,0.125314564,0.132052191,0.139152071
0.63,0.127948806,0.134344933,0.1410608
0.64,0.130197244,0.136812954,0.143764827
0.65,0.132187,0.138938683,0.146035221
0.66,0.134376564,0.141281754,0.14854178
0.67,0.137008303,0.143796383,0.150920778
0.68,0.138983738,0.145925886,0.153214789
0.69,0.141374821,0.148300631,0.15556573
0.7,0.143637805,0.150528963,0.15775073
0.71,0.145867426,0.153063611,0.16061481
0.72,0.147896716,0.155248463,0.162965655
0.73,0.150333955,0.157624286,0.165268155
0.74,0.15269879,0.160091468,0.167842051
0.75,0.15505928,0.162400497,0.17008928
0.76,0.157247401,0.164738239,0.17258592
0.77,0.159497597,0.16714783,0.175165004
0.78,0.1617573,0.169498791,0.17761078
0.79,0.164122244,0.171867138,0.179977511
0.8,0.166071515,0.174044886,0.182401071
0.81,0.16815444,0.176204929,0.18464084
0.82,0.170818048,0.178798558,0.187151912
0.83,0.173250903,0.181383957,0.189898807
0.84,0.175554286,0.18377004,0.192370282
0.85,0.177802588,0.186062911,0.194706991
0.86,0.1799037,0.188371664,0.197238209
0.87,0.182017609,0.190499402,0.199376437
0.88,0.184276137,0.193050021,0.202241653
0.89,0.187169729,0.195897306,0.205031842
0.9,0.188936543,0.197568756,0.206595361
0.91,0.19211217,0.200881407,0.21005093
0.92,0.193797943,0.202731866,0.212077635
0.93,0.19594341,0.204856549,0.214175131
0.94,0.198394722,0.207330021,0.216667747
0.95,0.201213259,0.210033136,0.219239618
0.96,0.203300864,0.212231566,0.221554579
0.97,0.205447248,0.214420885,0.223786478
0.98,0.207784456,0.217211991,0.22706727
0.99,0.20993849,0.219281127,0.229039527
1,0.212375583,0.221660444,0.231351232
1.01,0.214201121,0.223595075,0.233401008
1.02,0.217110706,0.226631187,0.236569149
1.03,0.219235147,0.228535328,0.238230031
1.04,0.221509733,0.231133811,0.241176034
1.05,0.224310891,0.233901089,0.243901306
1.06,0.226085278,0.236159471,0.246682563
1.07,0.22836676,0.238413564,0.248902368
1.08,0.230711977,0.240602925,0.250917913
1.09,0.233043042,0.243007884,0.25339882
1.1,0.235152944,0.245526128,0.256356898
1.11,0.237855263,0.24782842,0.258219748
1.12,0.240042112,0.250493697,0.26140035
1.13,0.242233053,0.252427376,0.263050725
1.14,0.244597889,0.254773773,0.265372999
1.15,0.246674352,0.257282386,0.268346609
1.16,0.249401762,0.260158972,0.271380163
1.17,0.251537927,0.262051946,0.27300544
1.18,0.254227981,0.264757779,0.275723707
1.19,0.256336906,0.266933594,0.277968337
1.2,0.258586242,0.269250207,0.280353947
1.21,0.26075235,0.271580965,0.282859274
1.22,0.263530197,0.274385324,0.285687588
1.23,0.265795131,0.276680104,0.288010844
1.24,0.267913296,0.278936471,0.29041319
1.25,0.269970783,0.28097597,0.292429776
1.26,0.272239226,0.283879108,0.296016665
1.27,0.274910544,0.286131259,0.297809957
1.28,0.277254096,0.288434177,0.300065087
1.29,0.279587669,0.29098662,0.302850312
1.3,0.281461411,0.292718295,0.304425392
1.31,0.283830579,0.295372049,0.307382832
1.32,0.286364046,0.298012472,0.310134722
1.33,0.288703254,0.300205974,0.312166993
1.34,0.290462643,0.302028158,0.314054184
1.35,0.292602645,0.304536948,0.316958011
1.36,0.29497456,0.306790072,0.319078866
1.37,0.298013152,0.30990077,0.32226258
1.38,0.300256957,0.312048346,0.324302795
1.39,0.30219352,0.313991913,0.326250945
1.4,0.30382456,0.315925823,0.328509077
1.41,0.306764082,0.318569235,0.330828684
1.42,0.309390409,0.32098492,0.333013938
1.43,0.311085556,0.323188944,0.335763237
1.44,0.31379306,0.325715765,0.338091479
1.45,0.315755638,0.327770032,0.34024157
1.46,0.317369605,0.329808507,0.342734936
1.47,0.319837285,0.332198551,0.345037562
1.48,0.322461183,0.334646217,0.347291694
1.49,0.324361353,0.33707409,0.35028508
1.5,0.326643626,0.339146161,0.35212724
1.51,0.329118448,0.341571119,0.354494954
1.52,0.331124314,0.343424782,0.356182182
1.53,0.333443147,0.346102618,0.359242717
1.54,0.335820679,0.348336694,0.361319179
1.55,0.33720339,0.349962532,0.363204455
1.56,0.339758307,0.352531582,0.365785071
1.57,0.341865073,0.355075593,0.368796599
1.58,0.344000893,0.357094648,0.370686791
1.59,0.346674341,0.35929623,0.372377663
1.6,0.347793394,0.360890491,0.374480794
1.61,0.350268025,0.363108367,0.376419417
1.62,0.352554798,0.365566024,0.379057437
1.63,0.354643888,0.367531456,0.38088735
1.64,0.357502729,0.370365332,0.383690718
1.65,0.358447011,0.371806255,0.385663396
1.66,0.360555413,0.37406766,0.388086295
1.67,0.362464341,0.376167949,0.390389647
1.68,0.365569321,0.378841873,0.392596306
1.69,0.367795762,0.381034468,0.394749698
1.7,0.369419816,0.383009417,0.397098929
1.71,0.371237584,0.384647384,0.398541571
1.72,0.37335195,0.38702718,0.40120331
1.73,0.375886987,0.389236875,0.403060894
1.74,0.377881854,0.391748548,0.406124092
1.75,0.379530166,0.393126746,0.40721042
1.76,0.382281873,0.395926166,0.410057448
1.77,0.3837729,0.397552814,0.411827514
1.78,0.385521921,0.399482319,0.413948246
1.79,0.388054017,0.401983234,0.41641244
1.8,0.39016519,0.403922674,0.418165257
1.81,0.391920117,0.405793414,0.420157802
1.82,0.393392077,0.407396896,0.42190029
1.83,0.395478675,0.409452487,0.423920049
1.84,0.396979582,0.41137043,0.426282958
1.85,0.399871019,0.413920951,0.428464545
1.86,0.402187913,0.415980524,0.430246139
1.87,0.40363936,0.417684252,0.432217846
1.88,0.404753517,0.419103116,0.433961447
1.89,0.407688072,0.421900259,0.436607889
1.9,0.410085311,0.424181707,0.438762657
1.91,0.411722948,0.425719585,0.44019204
1.92,0.413294485,0.427613131,0.442427849
1.93,0.416069232,0.430376407,0.445175557
1.94,0.417439456,0.431953714,0.44697263
1.95,0.419392855,0.433818453,0.448740239
1.96,0.421377085,0.435708291,0.450526907
1.97,0.422740676,0.43704711,0.451837703
1.98,0.424695952,0.439114169,0.454021877
1.99,0.426677388,0.441293193,0.456409662
2,0.428741514,0.443230947,0.458210054
2.01,0.430340778,0.444937722,0.460029786
2.02,0.432400279,0.447211582,0.462530227
2.03,0.434061875,0.448690154,0.463811419
2.04,0.435839412,0.450412698,0.465473274
2.05,0.437372611,0.452262106,0.467658486
2.06,0.439918581,0.454428255,0.469416496
2.07,0.441229094,0.455756733,0.470762699
2.08,0.443596789,0.458027159,0.472926955
2.09,0.445230961,0.459705215,0.47465002
2.1,0.446572877,0.461182624,0.476270332
2.11,0.449160451,0.463657865,0.478623207
2.12,0.450631573,0.465211337,0.480262815
2.13,0.452376967,0.467281618,0.482677339
2.14,0.454069707,0.468961369,0.484341417
2.15,0.455332094,0.470212112,0.4855784
2.16,0.457183548,0.47233427,0.487987075
2.17,0.459456322,0.47431905,0.489662565
2.18,0.461134314,0.476133581,0.491620728
2.19,0.462568663,0.477625694,0.493172844
2.2,0.46493842,0.480224946,0.496014071
2.21,0.466534961,0.481295269,0.496522566
2.22,0.467935656,0.48259135,0.497706058
2.23,0.469148509,0.48468993,0.500746189
2.24,0.471528284,0.486479925,0.501905665
2.25,0.473047986,0.488263086,0.503967565
2.26,0.475283238,0.49012014,0.505420204
2.27,0.476515062,0.491758757,0.507490097
2.28,0.477856705,0.492913463,0.508444644
2.29,0.480353597,0.495512433,0.511149647
2.3,0.482094268,0.496889668,0.512139138
2.31,0.483276729,0.498038668,0.513251517
2.32,0.484674218,0.500094043,0.516004446
2.33,0.486840924,0.502084392,0.517805148
2.34,0.488015383,0.503239133,0.518937792
2.35,0.489333127,0.50459425,0.520331331
2.36,0.491024679,0.506379306,0.522214082
2.37,0.493351917,0.508392219,0.523891038
2.38,0.495230509,0.509958453,0.525124399
2.39,0.496065338,0.511513841,0.527443443
2.4,0.497042411,0.512485845,0.528409117
2.41,0.500015489,0.515120535,0.530681891
2.42,0.50048398,0.515978327,0.531952359
2.43,0.502123625,0.517670967,0.533699703
2.44,0.503782937,0.519480531,0.535667253
2.45,0.505521409,0.520608177,0.536145193
2.46,0.507272212,0.522685265,0.538566631
2.47,0.508138679,0.523969332,0.540293177
2.48,0.511447105,0.526592355,0.542186093
2.49,0.512061124,0.527373909,0.54314461
2.5,0.51327957,0.52871523,0.54461508
2.51,0.514444821,0.529968227,0.545960052
2.52,0.516133686,0.531747376,0.5478334
2.53,0.517283674,0.533172428,0.549549216
2.54,0.519849464,0.535234814,0.551075507
2.55,0.520976046,0.536647262,0.552789876
2.56,0.522437609,0.538012335,0.55405137
2.57,0.523777257,0.53916821,0.555011419
2.58,0.525010428,0.540397295,0.556235117
2.59,0.526659778,0.542439481,0.558691973
2.6,0.527960328,0.543494391,0.559485509
2.61,0.529570448,0.545010039,0.56089977
2.62,0.530943172,0.546384428,0.562274758
2.63,0.531947041,0.547542731,0.563595656
2.64,0.53468983,0.549751503,0.565237449
2.65,0.535476259,0.550899403,0.566766774
2.66,0.53692939,0.552591504,0.568710479
2.67,0.537770759,0.553305367,0.569288724
2.68,0.53928959,0.55471322,0.570577964
2.69,0.540541379,0.55616801,0.572246394
2.7,0.541804533,0.557544494,0.573741718
2.71,0.543545378,0.559010399,0.574915433
2.72,0.545317599,0.561468157,0.578097043
2.73,0.546143365,0.561916685,0.578145558
2.74,0.547553237,0.563347191,0.579596714
2.75,0.549428348,0.565179075,0.581381336
2.76,0.550353645,0.56612794,0.582354361
2.77,0.551997483,0.567693477,0.583835784
2.78,0.552630379,0.56819363,0.584195174
2.79,0.554553868,0.569823138,0.585512839
2.8,0.556446709,0.571844536,0.587668448
2.81,0.556710911,0.572568382,0.588877539
2.82,0.558327816,0.574577796,0.591300728
2.83,0.559523918,0.575008184,0.590920961
2.84,0.56131951,0.57701859,0.593156744
2.85,0.561868438,0.577591576,0.593754706
2.86,0.56408039,0.579855294,0.596071354
2.87,0.564642901,0.580609135,0.597026842
2.88,0.565204702,0.581498892,0.598262823
2.89,0.567485903,0.582939145,0.598813196
2.9,0.569021784,0.584652847,0.600713296
2.91,0.569058083,0.585455761,0.602325946
2.92,0.570728981,0.58650389,0.602714816
2.93,0.571974681,0.587897779,0.604264157
2.94,0.573397408,0.589229085,0.605497879
2.95,0.575650475,0.591393376,0.607566813
2.96,0.576676071,0.59232109,0.608390553
2.97,0.57667803,0.592749797,0.609269477
2.98,0.578531036,0.594263685,0.610424171
2.99,0.580047431,0.595665229,0.611703537
3,0.581824961,0.597080349,0.612735731
3.01,0.582366059,0.59802973,0.614114701
3.02,0.58295374,0.598887769,0.615257327
3.03,0.584956714,0.600191476,0.615823015
3.04,0.585714467,0.601288122,0.617275867
3.05,0.586565626,0.602150537,0.618149535
3.06,0.589021834,0.603933357,0.619222377
3.07,0.589058523,0.604777911,0.620916781
3.08,0.591034913,0.606800424,0.622986472
3.09,0.591555837,0.60712865,0.62311142
3.1,0.59284461,0.608547235,0.624665774
3.11,0.59409737,0.609717114,0.625747525
3.12,0.595532863,0.611179381,0.627236982
3.13,0.595913755,0.611959494,0.628437286
3.14,0.598437248,0.61373265,0.629418986
3.15,0.598810132,0.614145988,0.629874604
3.16,0.600476998,0.616011279,0.631947429
3.17,0.600118079,0.615739492,0.631767539
3.18,0.602295538,0.617778921,0.63366034
3.19,0.60324529,0.618503605,0.63414786
3.2,0.60441061,0.619812198,0.63560625
3.21,0.604583217,0.620884208,0.637624713
3.22,0.606553562,0.622088515,0.638021347
3.23,0.607698121,0.622844747,0.638368897
3.24,0.60893189,0.623914553,0.639265862
3.25,0.609375312,0.625195276,0.641425941
3.26,0.610180954,0.625885152,0.641993529
3.27,0.611219255,0.627219809,0.643639227
3.28,0.612996148,0.628581676,0.644563469
3.29,0.614093265,0.629725354,0.645755366
3.3,0.615105761,0.630745001,0.646781874
3.31,0.61637042,0.631763985,0.647541997
3.32,0.61771107,0.633148377,0.64897148
3.33,0.618145651,0.633659357,0.649562413
3.34,0.619613828,0.634856573,0.650474297
3.35,0.62049263,0.635646285,0.651170022
3.36,0.621111017,0.636436552,0.652140235
3.37,0.622808284,0.638051916,0.653668645
3.38,0.62343559,0.638974658,0.654901036
3.39,0.623938399,0.639991263,0.65645714
3.4,0.625271222,0.640712698,0.656535511
3.41,0.6257249,0.641516379,0.657706389
3.42,0.627768546,0.643020571,0.658643154
3.43,0.627999731,0.643531729,0.659447873
3.44,0.62860337,0.644283383,0.660354522
3.45,0.629722781,0.645440766,0.661551075
3.46,0.630856676,0.646323728,0.662169994
3.47,0.632956735,0.648128896,0.663664738
3.48,0.633618339,0.648946438,0.664645344
3.49,0.634332782,0.649621639,0.665278993
3.5,0.635696357,0.65105402,0.666782706
3.51,0.635764898,0.65124246,0.66709682
3.52,0.636934357,0.652206256,0.667844333
3.53,0.637385024,0.653361998,0.669739457
3.54,0.639361674,0.654355805,0.669701575
3.55,0.640111049,0.655492054,0.671242643
3.56,0.640957528,0.656062863,0.671524183
3.57,0.641877157,0.656648031,0.671758813
3.58,0.642756439,0.657852255,0.673302612
3.59,0.643717916,0.659311786,0.675283412
3.6,0.644199004,0.659752698,0.675681923
3.61,0.646360172,0.661261876,0.676507136
3.62,0.647080187,0.662329836,0.677938871
3.63,0.647451308,0.662589331,0.678081295
3.64,0.6476072,0.663299417,0.679371874
3.65,0.648477403,0.663868718,0.679625339
3.66,0.649750287,0.66512182,0.680857007
3.67,0.650163344,0.665861109,0.681937887
3.68,0.652160287,0.667248924,0.682686657
3.69,0.652395767,0.66765981,0.683280985
3.7,0.653205113,0.668368141,0.683883153
3.71,0.654482947,0.669565236,0.684995089
3.72,0.655800526,0.670907937,0.686363371
3.73,0.65643603,0.671642427,0.687201082
3.74,0.656909362,0.671910549,0.687254304
3.75,0.657560603,0.672686686,0.688160718
3.76,0.658170202,0.673841735,0.689886419
3.77,0.658513139,0.673935713,0.689719488
3.78,0.6599657,0.675541052,0.691483986
3.79,0.660891604,0.676291134,0.692049492
3.8,0.661404981,0.676890373,0.692738322
3.81,0.662958208,0.678202412,0.693797144
3.82,0.664396075,0.67936815,0.694677619
3.83,0.664517055,0.679703423,0.695236849
3.84,0.665207876,0.680300805,0.695736178
3.85,0.666972526,0.681889186,0.697139453
3.86,0.6670134,0.682231617,0.697797044
3.87,0.668125013,0.682935554,0.698074404
3.88,0.668089837,0.683074615,0.69839549
3.89,0.66998137,0.685118822,0.700598287
3.9,0.670647352,0.685645754,0.700979583
3.91,0.670709694,0.685828087,0.701287262
3.92,0.672462892,0.687239759,0.702341336
3.93,0.672511452,0.687629624,0.703087654
3.94,0.673242847,0.688486277,0.704074846
3.95,0.674778678,0.689719361,0.704990856
3.96,0.674159849,0.689653667,0.705503571
3.97,0.675529322,0.690840514,0.706498742
3.98,0.67658193,0.691368302,0.706477824
3.99,0.67717433,0.692291416,0.707745973
4,0.677130918,0.692456614,0.70812918
4.01,0.679055025,0.694162605,0.709606297
4.02,0.678774559,0.693820765,0.709200497
4.03,0.680306039,0.695275193,0.710573722
4.04,0.681010269,0.695897387,0.711109943
4.05,0.681802682,0.6966926,0.7119077
4.06,0.682325095,0.697547262,0.713109024
4.07,0.683110196,0.697879323,0.712967765
4.08,0.683746236,0.698992524,0.714578776
4.09,0.684482466,0.699816255,0.715493553
4.1,0.685023198,0.700299941,0.715917371
4.11,0.686530471,0.701356245,0.716502186
4.12,0.687224368,0.701628176,0.716333879
4.13,0.687291591,0.702006915,0.717037303
4.14,0.688588023,0.703291576,0.718309096
4.15,0.689183277,0.704152083,0.719446007
4.16,0.690259549,0.704930944,0.719914178
4.17,0.69022931,0.705407275,0.720918999
4.18,0.691776706,0.706245005,0.721015903
4.19,0.692333739,0.707089695,0.722160149
4.2,0.692606201,0.707452137,0.722616294
4.21,0.693349769,0.70798841,0.722936114
4.22,0.692840789,0.708100683,0.723696679
4.23,0.693695386,0.709014577,0.724672069
4.24,0.694853533,0.709693292,0.724849979
4.25,0.696172596,0.710791425,0.725717233
4.26,0.696422623,0.711133999,0.726156142
4.27,0.697820072,0.712100074,0.726672298
4.28,0.698422348,0.713341707,0.728579767
4.29,0.698132236,0.71292319,0.728027512
4.3,0.699414864,0.713824232,0.728530461
4.31,0.700429299,0.714857894,0.729583712
4.32,0.700964825,0.715800882,0.730950946
4.33,0.7014336,0.715860994,0.730585137
4.34,0.702132733,0.71673951,0.731650158
4.35,0.703082673,0.71794163,0.733114617
4.36,0.70416894,0.718710274,0.733551891
4.37,0.703554613,0.718513733,0.733790918
4.38,0.70565565,0.719932772,0.734498755
4.39,0.705404339,0.719831506,0.734553741
4.4,0.706172575,0.720489077,0.735095824
4.41,0.707174899,0.721125234,0.735350765
4.42,0.707231995,0.721621192,0.736303149
4.43,0.708331386,0.722783099,0.737529663
4.44,0.708279606,0.723063164,0.738155292
4.45,0.709486077,0.723897042,0.738600719
4.46,0.710001879,0.724588702,0.739475207
4.47,0.710460582,0.725172305,0.740188669
4.48,0.711568265,0.726029828,0.740785302
4.49,0.711893134,0.72613806,0.740668026
4.5,0.712276574,0.726950647,0.741927031
4.51,0.71269346,0.727242566,0.742088682
4.52,0.713518091,0.728135334,0.743052028
4.53,0.713174194,0.727766468,0.742657315
4.54,0.715435904,0.729885448,0.744626827
4.55,0.715746205,0.729887584,0.744308362
4.56,0.716371055,0.730571712,0.74505387
4.57,0.717004919,0.731385723,0.746054959
4.58,0.718311606,0.732239409,0.746437267
4.59,0.717308839,0.73193849,0.746866516
4.6,0.717463042,0.732061658,0.74695732
4.61,0.71880992,0.733268849,0.748018622
4.62,0.719150951,0.733359934,0.747849658
4.63,0.720249438,0.734337602,0.748701332
4.64,0.720596696,0.73502705,0.74974638
4.65,0.720907759,0.735315119,0.75001041
4.66,0.722092255,0.736093404,0.750366031
4.67,0.722339779,0.736672512,0.751289636
4.68,0.722710267,0.737170075,0.75191919
4.69,0.723882024,0.73795598,0.752303568
4.7,0.724763323,0.738556155,0.752611475
4.71,0.725529957,0.739203174,0.753134075
4.72,0.72577708,0.739815159,0.754124765
4.73,0.725536073,0.739867855,0.754482737
4.74,0.726579103,0.740706369,0.755108319
4.75,0.726963627,0.740991475,0.755290011
4.76,0.727550044,0.741526234,0.755770906
4.77,0.728344183,0.742270609,0.756463317
4.78,0.72898813,0.742933753,0.757146158
