flow depth [m],16th percentile vulnerability,median vulnerability,84th percentile vulnerability
0.000001,0.01067419,0.011029793,0.011397243
0.01,0.011554788,0.011953962,0.012366926
0.02,0.01308155,0.013566069,0.014068534
0.03,0.014795679,0.015362036,0.015950073
0.04,0.016554837,0.017226437,0.017925282
0.05,0.018401687,0.019190334,0.020012782
0.06,0.020240919,0.021111152,0.0220188
0.07,0.022124185,0.023082938,0.024083239
0.08,0.02409561,0.025119091,0.026186045
0.09,0.026002409,0.027108271,0.028261164
0.1,0.027935176,0.029153892,0.030425776
0.11,0.029925617,0.031215503,0.032560987
0.12,0.031912638,0.033325686,0.034801302
0.13,0.033911842,0.035406939,0.036967951
0.14,0.035923797,0.037534945,0.039218352
0.15,0.038019211,0.039696436,0.041447653
0.16,0.039924245,0.04172171,0.043600099
0.17,0.042042711,0.043865169,0.045766627
0.18,0.044037129,0.046005628,0.04806212
0.19,0.046230453,0.048227215,0.05031022
0.2,0.048172253,0.050220982,0.052356841
0.21,0.050271005,0.052404905,0.054629384
0.22,0.052322249,0.054542599,0.056857172
0.23,0.054357374,0.056704771,0.05915354
0.24,0.056379132,0.058813791,0.061353588
0.25,0.058529598,0.061039785,0.063657627
0.26,0.060543913,0.063077335,0.065716766
0.27,0.062573792,0.065258773,0.068058964
0.28,0.064760241,0.067452731,0.070257164
0.29,0.066759384,0.06955347,0.072464498
0.3,0.068894984,0.071705726,0.07463114
0.31,0.070879966,0.073877307,0.077001398
0.32,0.072964222,0.075966626,0.079092575
0.33,0.075083957,0.078126744,0.08129284
0.34,0.077165916,0.080357485,0.083681057
0.35,0.079263536,0.082458216,0.085781657
0.36,0.081339437,0.084487943,0.087758322
0.37,0.083336673,0.086595653,0.089982079
0.38,0.08531379,0.088680327,0.09217971
0.39,0.087339485,0.090836188,0.094472883
0.4,0.089366769,0.092915321,0.096604779
0.41,0.091441813,0.095112244,0.098930003
0.42,0.09351167,0.097216972,0.101069093
0.43,0.095648824,0.09935504,0.103204865
0.44,0.097703243,0.101356989,0.105147372
0.45,0.099629269,0.103516405,0.107555202
0.46,0.101801064,0.105767288,0.109888037
0.47,0.10366584,0.107716867,0.111926199
0.48,0.105545212,0.109657822,0.113930681
0.49,0.107813,0.111882892,0.116106421
0.5,0.109633579,0.113849038,0.118226583
0.51,0.111904387,0.116070179,0.120391048
0.52,0.113757143,0.118071112,0.122548679
0.53,0.115718343,0.120092852,0.12463273
0.54,0.117923167,0.122382756,0.127010997
0.55,0.119987301,0.124384263,0.128942353
0.56,0.122039134,0.126562859,0.131254269
0.57,0.123961947,0.128563106,0.133335047
0.58,0.125783649,0.130465096,0.135320778
0.59,0.127763536,0.132532205,0.137478861
0.6,0.129844375,0.13455672,0.139440087
0.61,0.131841513,0.136649512,0.141632849
0.62,0.134050748,0.138902566,0.14392999
0.63,0.135806055,0.140799513,0.145976575
0.64,0.137871274,0.14289071,0.148092887
0.65,0.139807401,0.144980741,0.150345511
0.66,0.141874039,0.147031512,0.152376472
0.67,0.143605187,0.148921888,0.154435429
0.68,0.14585347,0.151091259,0.156517144
0.69,0.147820288,0.153206702,0.158789391
0.7,0.149813822,0.155156562,0.160689837
0.71,0.151768897,0.157233138,0.162894112
0.72,0.153738645,0.15935437,0.165175224
0.73,0.155892729,0.161332641,0.16696238
0.74,0.158123161,0.163507925,0.169076064
0.75,0.160069724,0.165669862,0.171465924
0.76,0.162079625,0.1677133,0.173542794
0.77,0.163754964,0.169383677,0.175205864
0.78,0.165976229,0.171683811,0.177587666
0.79,0.168050934,0.173811928,0.179770417
0.8,0.170063568,0.176081773,0.18231295
0.81,0.171889281,0.177893732,0.184107932
0.82,0.173980562,0.179806745,0.185828033
0.83,0.17603836,0.182180141,0.188536201
0.84,0.178288285,0.18432006,0.190555899
0.85,0.179863344,0.186065429,0.192481376
0.86,0.181862171,0.188205361,0.194769796
0.87,0.183958787,0.190369961,0.197004572
0.88,0.186457811,0.192672667,0.199094672
0.89,0.187895636,0.194402146,0.201133966
0.9,0.190299379,0.196753781,0.203427097
0.91,0.192823123,0.199056681,0.205491757
0.92,0.193992914,0.200673566,0.207584283
0.93,0.196275128,0.202779501,0.209499424
0.94,0.19847349,0.205202831,0.212160333
0.95,0.20040771,0.207247916,0.214321587
0.96,0.203043556,0.209535354,0.21623471
0.97,0.204505342,0.211513089,0.21876097
0.98,0.206780523,0.213612381,0.220669957
0.99,0.208634238,0.215513341,0.222619263
1,0.210566597,0.217501602,0.22466501
1.01,0.212753455,0.219942911,0.227375317
1.02,0.215106187,0.22213622,0.229396006
1.03,0.217166809,0.224163593,0.231385802
1.04,0.219133742,0.226362803,0.233830345
1.05,0.221448688,0.228778089,0.236350076
1.06,0.223618518,0.230844663,0.238304318
1.07,0.225467822,0.23282992,0.24043241
1.08,0.227993139,0.235382292,0.243010923
1.09,0.229507005,0.237230349,0.245213599
1.1,0.231638793,0.239149357,0.246903441
1.11,0.233923115,0.241709922,0.249755936
1.12,0.236205247,0.243823931,0.251688352
1.13,0.238228219,0.246119491,0.25427216
1.14,0.240163682,0.248115548,0.256330702
1.15,0.242464622,0.250241869,0.258268577
1.16,0.244528802,0.252537301,0.260808085
1.17,0.246719801,0.254475345,0.262474682
1.18,0.248625399,0.25671855,0.265075146
1.19,0.251043479,0.259200529,0.267622622
1.2,0.253106292,0.261274961,0.269707264
1.21,0.255702373,0.263907426,0.272375765
1.22,0.257721775,0.266071916,0.274692599
1.23,0.259700301,0.26796294,0.276488463
1.24,0.261498036,0.270013811,0.278806905
1.25,0.263881275,0.272355655,0.281102185
1.26,0.266072239,0.274613813,0.283429592
1.27,0.268537755,0.276928698,0.285581831
1.28,0.270464945,0.278981958,0.287767174
1.29,0.272915042,0.281430609,0.290211881
1.3,0.274968307,0.283694099,0.292696793
1.31,0.276458891,0.285259544,0.294340353
1.32,0.278931852,0.287719645,0.296784299
1.33,0.281437839,0.290213824,0.299263468
1.34,0.283840371,0.292888782,0.302225644
1.35,0.285686299,0.294670154,0.303936521
1.36,0.28801866,0.297368758,0.307022393
1.37,0.290662813,0.29977165,0.309165943
1.38,0.292481606,0.301663778,0.311134216
1.39,0.294835657,0.304099084,0.313653559
1.4,0.296737759,0.30611158,0.315781516
1.41,0.298568984,0.308291585,0.318330793
1.42,0.301249619,0.310638618,0.320320242
1.43,0.304423864,0.313649005,0.323153701
1.44,0.306020773,0.315532873,0.325340639
1.45,0.307606429,0.317380031,0.327464171
1.46,0.30997407,0.319929988,0.330205677
1.47,0.312794823,0.322335566,0.332167317
1.48,0.314657832,0.324546717,0.334746385
1.49,0.317290026,0.327049555,0.337109278
1.5,0.319290842,0.32903936,0.339085517
1.51,0.321177144,0.331174683,0.341483423
1.52,0.323445639,0.333660291,0.344197529
1.53,0.326424828,0.336309774,0.346494061
1.54,0.328124202,0.338273573,0.348736879
1.55,0.330094017,0.340308426,0.35083891
1.56,0.332730936,0.342630362,0.352824315
1.57,0.334742846,0.345213551,0.356011778
1.58,0.337551299,0.347758507,0.358274371
1.59,0.339182577,0.349685674,0.360514009
1.6,0.3416143,0.351927286,0.362551611
1.61,0.344307117,0.354514797,0.365025106
1.62,0.346751081,0.357070449,0.367696924
1.63,0.348227238,0.359040116,0.370188747
1.64,0.350648183,0.361447997,0.37258044
1.65,0.35333588,0.363848001,0.37467287
1.66,0.355279324,0.366069507,0.377187398
1.67,0.357516082,0.368415237,0.379646661
1.68,0.359969013,0.370733286,0.381819447
1.69,0.36230548,0.373135896,0.384290067
1.7,0.364002224,0.374955696,0.386238778
1.71,0.366309758,0.377510853,0.389054456
1.72,0.368955601,0.380446888,0.392296076
1.73,0.371284007,0.382297344,0.393637367
1.74,0.372923744,0.384159549,0.395733876
1.75,0.375538204,0.386742234,0.398280531
1.76,0.377530636,0.388802551,0.400411012
1.77,0.380108061,0.391448047,0.403126347
1.78,0.381945983,0.393164249,0.40471201
1.79,0.383838327,0.395433301,0.407378537
1.8,0.386452949,0.397940006,0.409768508
1.81,0.389022023,0.400438499,0.41219001
1.82,0.391030292,0.402553055,0.414415367
1.83,0.393649194,0.405185368,0.417059617
1.84,0.396401795,0.407863222,0.41965604
1.85,0.397847971,0.409418191,0.421324896
1.86,0.400297046,0.412171512,0.424398224
1.87,0.402229856,0.414033225,0.426182962
1.88,0.404477698,0.416541182,0.428964457
1.89,0.407242345,0.418898772,0.430888839
1.9,0.409276168,0.420973174,0.433004478
1.91,0.411133589,0.423077034,0.435367437
1.92,0.414107641,0.425879016,0.437985002
1.93,0.415433862,0.427554775,0.440029335
1.94,0.417905548,0.430102952,0.442656362
1.95,0.42076002,0.432298669,0.444153747
1.96,0.422387627,0.434420947,0.446797081
1.97,0.42466534,0.436951441,0.449592994
1.98,0.427320412,0.439872187,0.452792648
1.99,0.428948059,0.441240367,0.453884934
2,0.431504294,0.443689014,0.456217803
2.01,0.433150082,0.445844296,0.458910537
2.02,0.436317224,0.448526722,0.461077879
2.03,0.438187315,0.450746585,0.463665828
2.04,0.439597613,0.452303638,0.465376916
2.05,0.44297726,0.455477318,0.468330106
2.06,0.444307274,0.457089937,0.470240356
2.07,0.446805924,0.459340576,0.472226874
2.08,0.448743721,0.461322077,0.474253005
2.09,0.450736888,0.463527115,0.476680281
2.1,0.45349299,0.465942983,0.478734772
2.11,0.455633628,0.468512499,0.481755402
2.12,0.457372981,0.470225101,0.483438364
2.13,0.458883101,0.472189768,0.485882301
2.14,0.461482796,0.474526094,0.487938047
2.15,0.463680884,0.476722234,0.49013038
2.16,0.465831386,0.478886696,0.492307891
2.17,0.468518341,0.481420489,0.494677939
2.18,0.46979467,0.482955738,0.496485506
2.19,0.473077271,0.4858277,0.49892178
2.2,0.474969209,0.488213512,0.501827126
2.21,0.476844201,0.490025279,0.503570712
2.22,0.478306802,0.491650427,0.505366307
2.23,0.480882144,0.494164049,0.507812798
2.24,0.483418914,0.496723226,0.51039369
2.25,0.485574638,0.49918369,0.513174158
2.26,0.487817272,0.501114733,0.514774671
2.27,0.49019615,0.503547431,0.517262356
2.28,0.491738278,0.504954327,0.518525573
2.29,0.493844035,0.507163553,0.520842314
2.3,0.49587203,0.509064366,0.522607675
2.31,0.49849293,0.511783905,0.525429248
2.32,0.499430957,0.513148262,0.527242325
2.33,0.501857452,0.515497207,0.529507671
2.34,0.504570896,0.517739874,0.531252555
2.35,0.505981102,0.519697779,0.533786303
2.36,0.508637771,0.521888852,0.535485152
2.37,0.510336912,0.523935178,0.537895779
2.38,0.512253003,0.525785243,0.539674965
2.39,0.514325002,0.527994495,0.542027291
2.4,0.515985395,0.530012445,0.544420819
2.41,0.518230718,0.532077351,0.546293953
2.42,0.520655121,0.534282172,0.548265884
2.43,0.522443885,0.536234871,0.550389899
2.44,0.524741957,0.538400023,0.552413584
2.45,0.526310955,0.540284869,0.5546298
2.46,0.528280967,0.542345118,0.556783692
2.47,0.530142879,0.544338255,0.558913734
2.48,0.53241647,0.546204036,0.560348648
2.49,0.534529335,0.548560427,0.562959827
2.5,0.535685545,0.549969035,0.564633379
2.51,0.538015531,0.551822963,0.565984744
2.52,0.540022628,0.554336219,0.5690292
2.53,0.542459953,0.5565925,0.571093238
2.54,0.544751498,0.558744451,0.573096839
2.55,0.545821735,0.560213519,0.574984773
2.56,0.548536993,0.562377933,0.576568113
2.57,0.550151816,0.564190487,0.578587393
2.58,0.551563911,0.566108501,0.581036628
2.59,0.553660051,0.567881136,0.582467497
2.6,0.556372685,0.570183108,0.584336337
2.61,0.557248535,0.571721556,0.586570474
2.62,0.558569118,0.572962996,0.587727793
2.63,0.561434953,0.575652607,0.590230306
2.64,0.563611748,0.57767008,0.592079073
2.65,0.564396931,0.578938186,0.593854084
2.66,0.567654686,0.58220249,0.597123123
2.67,0.569032155,0.583216662,0.597754753
2.68,0.571789269,0.585676982,0.599902002
2.69,0.573061222,0.586842705,0.600955617
2.7,0.574587047,0.588835399,0.603437075
2.71,0.576522789,0.590970892,0.605781075
2.72,0.57815142,0.592669999,0.607553169
2.73,0.580661949,0.594999198,0.60969045
2.74,0.581766811,0.596134211,0.61085643
2.75,0.584066621,0.598477238,0.613243406
2.76,0.585411588,0.59979037,0.614522321
2.77,0.587281685,0.601525557,0.616114898
2.78,0.589304851,0.603616606,0.618275933
2.79,0.591515587,0.605410634,0.619632084
2.8,0.592506541,0.607189237,0.622235779
2.81,0.594886925,0.609299244,0.624060731
2.82,0.59664835,0.611009695,0.625716719
2.83,0.597854473,0.612696718,0.627907434
2.84,0.600404369,0.614980632,0.62991077
2.85,0.602189837,0.616247677,0.63063369
2.86,0.60375055,0.617892828,0.632366374
2.87,0.605340826,0.619854659,0.63471648
2.88,0.606986841,0.621624904,0.636615977
2.89,0.608613585,0.623063497,0.637856484
2.9,0.610572528,0.625200385,0.64017869
2.91,0.612442514,0.627329839,0.642579047
2.92,0.613719221,0.62840992,0.643452271
2.93,0.61530358,0.630217005,0.645491893
2.94,0.617926085,0.632090869,0.646580353
2.95,0.619200664,0.633516081,0.648162458
2.96,0.620181387,0.634879286,0.649925516
2.97,0.622295624,0.636659874,0.65135569
2.98,0.623923292,0.638631736,0.653686919
2.99,0.625417187,0.640522243,0.655992115
3,0.626455978,0.641650886,0.657214351
3.01,0.629196528,0.643828035,0.658799788
3.02,0.630754399,0.645524336,0.660640131
3.03,0.631993855,0.6463998,0.661134121
3.04,0.634134593,0.648830762,0.663867517
3.05,0.63541061,0.649971286,0.664865627
3.06,0.638019534,0.652681632,0.667680674
3.07,0.638513531,0.653341433,0.668513676
3.08,0.640968738,0.655574927,0.670513956
3.09,0.642253845,0.656838647,0.671754652
3.1,0.64427224,0.658599139,0.673244631
3.11,0.646420764,0.660419092,0.674720555
3.12,0.646654782,0.661339435,0.676357557
3.13,0.648203627,0.663200954,0.678545271
3.14,0.650193201,0.664846968,0.679830996
3.15,0.650770065,0.665820287,0.681218572
3.16,0.652885176,0.667694463,0.682839667
3.17,0.654933192,0.669632139,0.684660981
3.18,0.65708013,0.671672809,0.686589568
3.19,0.657572904,0.672009309,0.686762651
3.2,0.659256609,0.674283974,0.68965388
3.21,0.66064179,0.675139491,0.689955342
3.22,0.661993908,0.676941467,0.692226537
3.23,0.663971526,0.678571919,0.693493366
3.24,0.665849048,0.680556707,0.695589238
3.25,0.666453167,0.68143536,0.69675436
3.26,0.668086044,0.682856127,0.697952749
3.27,0.669537982,0.684334701,0.699458426
3.28,0.671514209,0.686230563,0.701269428
3.29,0.672840557,0.687596086,0.702675206
3.3,0.673777556,0.688510092,0.703564763
3.31,0.675563593,0.690068717,0.704885282
3.32,0.677299624,0.69200631,0.707032333
3.33,0.678491154,0.693323472,0.708480036
3.34,0.680012327,0.694635946,0.709574044
3.35,0.682131098,0.696745244,0.711672488
3.36,0.682297194,0.697543229,0.71312994
3.37,0.684361136,0.699148323,0.714255022
3.38,0.685605388,0.700598256,0.71591899
3.39,0.6868014,0.701754198,0.717032543
3.4,0.688936509,0.703572019,0.71851844
3.41,0.690067215,0.704621851,0.719483467
3.42,0.691195973,0.705951627,0.721022285
3.43,0.692713692,0.707228335,0.722047109
3.44,0.69411351,0.708787921,0.723772567
3.45,0.695803845,0.710029075,0.72454513
3.46,0.697335089,0.711898778,0.726766626
3.47,0.699098423,0.713280176,0.727749617
3.48,0.700200474,0.71430758,0.728698906
3.49,0.701590391,0.716085136,0.73087934
3.5,0.702575852,0.717108029,0.731940791
3.51,0.704142595,0.718602571,0.733359492
3.52,0.704366777,0.718712437,0.733350271
3.53,0.706236882,0.721157495,0.736393335
3.54,0.706626905,0.721609794,0.736910371
3.55,0.708253336,0.723094205,0.738246053
3.56,0.709698082,0.724302929,0.739208329
3.57,0.711506284,0.72646724,0.741742782
3.58,0.712999132,0.727282223,0.741851438
3.59,0.714066242,0.728707174,0.743648297
3.6,0.715185941,0.730073789,0.745271554
3.61,0.716947002,0.731624865,0.746603224
3.62,0.717582183,0.732342349,0.747406122
3.63,0.719385795,0.733778187,0.748458521
3.64,0.720241164,0.735058555,0.750180781
3.65,0.722158346,0.736657878,0.751448533
3.66,0.723673432,0.737817285,0.752237572
3.67,0.725160006,0.739001199,0.753106579
3.68,0.725605934,0.739822911,0.754318443
3.69,0.7263615,0.740809891,0.755545683
3.7,0.72724723,0.741917306,0.756883308
3.71,0.72960368,0.74400861,0.758697944
3.72,0.730357143,0.744644786,0.759211933
3.73,0.732291377,0.746320736,0.760618871
3.74,0.732215951,0.746710786,0.761492559
3.75,0.733418831,0.74833287,0.763550186
3.76,0.735744126,0.749700531,0.763921676
3.77,0.735620948,0.74993587,0.764529355
3.78,0.737874397,0.751900244,0.7661927
3.79,0.739451604,0.753481698,0.767777995
3.8,0.740447937,0.754758388,0.769345413
3.81,0.741368394,0.755516811,0.769935239
3.82,0.742331143,0.756713453,0.771374413
3.83,0.743741364,0.757872865,0.772272872
3.84,0.745047359,0.759256293,0.773736207
3.85,0.745943906,0.760192729,0.774713728
3.86,0.746644153,0.760927715,0.775484526
3.87,0.747862896,0.761986194,0.776376209
3.88,0.749188235,0.763629922,0.778349993
3.89,0.750489537,0.764909293,0.779606108
3.9,0.750495812,0.765190734,0.780173386
3.91,0.752570266,0.766912086,0.781527219
3.92,0.754097464,0.767907248,0.781969931
3.93,0.754487632,0.768984945,0.783760819
3.94,0.755762151,0.769612708,0.783717097
3.95,0.756977762,0.771790516,0.786893129
3.96,0.758337097,0.772348503,0.786618791
3.97,0.758369446,0.772670411,0.787241058
3.98,0.760009477,0.774011298,0.788271077
3.99,0.760605417,0.774706674,0.789069362
4,0.762204903,0.775888751,0.789818265
4.01,0.762778751,0.777146061,0.791783986
4.02,0.764841482,0.778873956,0.793163881
4.03,0.765100838,0.779265453,0.793692302
4.04,0.766358537,0.780573138,0.795051395
4.05,0.766998249,0.781190113,0.795644571
4.06,0.768676005,0.782634863,0.79684721
4.07,0.77055874,0.784245828,0.798176034
4.08,0.77072119,0.784623845,0.798777283
4.09,0.77197709,0.785509565,0.79927926
4.1,0.77238255,0.786448455,0.800770515
4.11,0.773149514,0.787268025,0.801644355
4.12,0.774347939,0.78818352,0.802266306
4.13,0.776258984,0.789716534,0.803407389
4.14,0.776470681,0.790295127,0.804365706
4.15,0.777898096,0.79165572,0.805656656
4.16,0.778376993,0.792413881,0.806703905
4.17,0.779540982,0.793664218,0.808043329
4.18,0.781660763,0.795172753,0.808918314
4.19,0.78101347,0.794642974,0.808510326
4.2,0.782247696,0.796115818,0.810229802
4.21,0.783342295,0.797373297,0.811655618
4.22,0.784891774,0.798409443,0.812159919
4.23,0.784822015,0.798932695,0.813297078
4.24,0.78650578,0.800040368,0.813807866
4.25,0.787493776,0.801188408,0.815121192
4.26,0.788363535,0.802073122,0.816021117
4.27,0.788921388,0.80257243,0.816459683
4.28,0.790345038,0.804270383,0.818441083
4.29,0.790428432,0.804582246,0.818989506
4.3,0.791551254,0.804915887,0.818506169
4.31,0.793160606,0.806845875,0.820767271
4.32,0.793814425,0.80726152,0.820936407
4.33,0.794665663,0.808178806,0.821921738
4.34,0.795419671,0.808935644,0.822681284
4.35,0.796401117,0.8099694,0.823768847
4.36,0.797065368,0.810744402,0.824658192
4.37,0.797895874,0.811587311,0.825513686
4.38,0.799483985,0.812958697,0.826660515
4.39,0.800617753,0.813916775,0.827436706
4.4,0.800825819,0.814414176,0.828233099
4.41,0.801459713,0.815005944,0.828781133
4.42,0.802433093,0.815531604,0.828843927
4.43,0.802814224,0.816331469,0.830076307
4.44,0.803699345,0.817439842,0.831415255
4.45,0.805495767,0.818667453,0.832054526
4.46,0.805545218,0.819252488,0.833193003
4.47,0.806714903,0.819821917,0.833141886
4.48,0.806953775,0.820320496,0.833908629
4.49,0.807873994,0.821533647,0.835424261
4.5,0.809646402,0.822772329,0.836111053
4.51,0.810125886,0.823411138,0.836914255
4.52,0.810646848,0.823862504,0.837293611
4.53,0.811955374,0.825258236,0.838779049
4.54,0.812760205,0.826015855,0.839487696
4.55,0.813134785,0.826253955,0.839584791
4.56,0.814151344,0.827194285,0.840446178
4.57,0.815896688,0.828678601,0.841660757
4.58,0.816199593,0.828986269,0.841973263
4.59,0.816683094,0.829760512,0.843047337
4.6,0.817000165,0.830388323,0.843995872
4.61,0.81821508,0.831407921,0.844813483
4.62,0.819135788,0.831931924,0.844927954
4.63,0.819618292,0.832866959,0.846329784
4.64,0.820073869,0.833324077,0.846788372
4.65,0.821390041,0.834372674,0.847560506
4.66,0.822458271,0.83542786,0.848601969
4.67,0.822455906,0.835591281,0.848936441
4.68,0.82290315,0.836291072,0.849896804
4.69,0.824133588,0.837094823,0.850259901
4.7,0.825328082,0.8382866,0.85144858
4.71,0.825089543,0.838269556,0.851660107
4.72,0.826686747,0.839460668,0.852431971
4.73,0.82675011,0.839881501,0.853221459
4.74,0.828533593,0.84155786,0.854786864
4.75,0.828738362,0.841763735,0.85499383
4.76,0.829476069,0.842894364,0.856529724
4.77,0.82983421,0.84274828,0.855863321
