flow depth [m],16th percentile vulnerability,median vulnerability,84th percentile vulnerability
0.000001,0.010689609,0.011029245,0.011379673
0.01,0.011049974,0.011418597,0.011799517
0.02,0.011754498,0.012161153,0.012581877
0.03,0.012679275,0.013128252,0.013593128
0.04,0.013786605,0.014299427,0.014831325
0.05,0.015066349,0.01565014,0.016256552
0.06,0.016494917,0.01715079,0.017832743
0.07,0.018097143,0.018833009,0.019598797
0.08,0.019797251,0.02061888,0.021474608
0.09,0.021584928,0.022498762,0.023451286
0.1,0.023477468,0.024480191,0.02552574
0.11,0.025407539,0.026530038,0.027702129
0.12,0.027573761,0.028751808,0.029980184
0.13,0.02970092,0.030986777,0.032328302
0.14,0.031882015,0.033259048,0.034695558
0.15,0.034091078,0.035610888,0.037198453
0.16,0.036461507,0.038037153,0.039680889
0.17,0.038741344,0.040422209,0.042176001
0.18,0.041232474,0.042983953,0.044809831
0.19,0.043499178,0.045387629,0.047358065
0.2,0.046046738,0.047960601,0.049954012
0.21,0.048430025,0.050515533,0.052690847
0.22,0.050910688,0.053077855,0.055337274
0.23,0.053370734,0.055558401,0.057835742
0.24,0.055819757,0.058180237,0.060640535
0.25,0.058300584,0.060779142,0.063363072
0.26,0.060809853,0.063353995,0.066004578
0.27,0.063385604,0.065961909,0.068642928
0.28,0.065741491,0.068399214,0.07116438
0.29,0.06807435,0.070903545,0.073850323
0.3,0.070643117,0.073487848,0.076447133
0.31,0.073171879,0.076106458,0.079158729
0.32,0.0757967,0.078727054,0.081770698
0.33,0.078070554,0.081238416,0.08453482
0.34,0.080319564,0.083567724,0.086947241
0.35,0.083103389,0.086354701,0.089733217
0.36,0.085287385,0.088593944,0.092028697
0.37,0.087865733,0.09120866,0.094678772
0.38,0.090244468,0.093698927,0.097285618
0.39,0.092521457,0.096056899,0.099727438
0.4,0.094902448,0.098462877,0.102156882
0.41,0.097289394,0.100931895,0.10471077
0.42,0.099632523,0.103373374,0.10725468
0.43,0.102041086,0.105852079,0.109805404
0.44,0.104367525,0.108293782,0.112367743
0.45,0.106840647,0.110733555,0.114768307
0.46,0.109154921,0.113188299,0.117370714
0.47,0.111306753,0.115463529,0.11977554
0.48,0.113736894,0.117880906,0.122175906
0.49,0.115938329,0.120102924,0.124417115
0.5,0.118107035,0.122383851,0.126815535
0.51,0.120484039,0.124880909,0.129438235
0.52,0.122743316,0.127177654,0.13177219
0.53,0.125479969,0.1299319,0.134541782
0.54,0.127550158,0.131882526,0.136362047
0.55,0.129745858,0.134355557,0.139129033
0.56,0.131900885,0.136641086,0.141551638
0.57,0.134205867,0.138959305,0.143881104
0.58,0.136461966,0.141192017,0.146086022
0.59,0.138816698,0.143467587,0.148274299
0.6,0.141047203,0.145900053,0.15091987
0.61,0.142958949,0.148050145,0.153322653
0.62,0.145381211,0.150445308,0.155685803
0.63,0.147599418,0.152700219,0.157977296
0.64,0.150004337,0.155092403,0.160353054
0.65,0.15200747,0.157226525,0.162624772
0.66,0.154662688,0.159891993,0.165298106
0.67,0.156888283,0.162112537,0.167510754
0.68,0.159094171,0.16442571,0.169935919
0.69,0.161149884,0.166532519,0.172094941
0.7,0.163522448,0.168974816,0.174608984
0.71,0.16546439,0.171114787,0.176958139
0.72,0.167986317,0.173514665,0.179224948
0.73,0.170180521,0.175841736,0.181691278
0.74,0.172184464,0.177896223,0.183797455
0.75,0.174423379,0.180201011,0.186170022
0.76,0.176802755,0.182618767,0.188626099
0.77,0.179085438,0.185008708,0.191127892
0.78,0.180942473,0.187080425,0.193426589
0.79,0.183539864,0.189712101,0.196091903
0.8,0.186096689,0.192116657,0.198331362
0.81,0.188442397,0.194456935,0.200663439
0.82,0.190473687,0.196699965,0.20312977
0.83,0.192909724,0.19921026,0.205716575
0.84,0.194794978,0.201023602,0.207451387
0.85,0.196954456,0.203412329,0.210081947
0.86,0.19978469,0.205958693,0.212323493
0.87,0.201858165,0.208431627,0.215219151
0.88,0.204077607,0.210752396,0.217645499
0.89,0.206168331,0.212925713,0.219904576
0.9,0.208485185,0.215197026,0.222124944
0.91,0.210768192,0.217514061,0.224475839
0.92,0.213127788,0.219972991,0.227038047
0.93,0.215289606,0.222122345,0.229171938
0.94,0.217856082,0.224889156,0.23214928
0.95,0.220540218,0.227468385,0.234614198
0.96,0.222811158,0.229716323,0.236835486
0.97,0.224711836,0.232066964,0.239662835
0.98,0.227031953,0.234331929,0.241866627
0.99,0.229747157,0.236940411,0.244358882
1,0.231838312,0.239109844,0.246609444
1.01,0.234304806,0.241724571,0.249379299
1.02,0.236710351,0.24407755,0.25167404
1.03,0.239294437,0.246734132,0.254405128
1.04,0.241625235,0.249173126,0.256956798
1.05,0.243475958,0.251256667,0.259286022
1.06,0.246497239,0.254122145,0.261982912
1.07,0.248932459,0.256761469,0.264836704
1.08,0.251107412,0.258889431,0.266912622
1.09,0.253670065,0.261546379,0.269667249
1.1,0.25588726,0.263850973,0.272062531
1.11,0.258345932,0.266451813,0.274812025
1.12,0.260761724,0.269024426,0.277548947
1.13,0.263646438,0.271696629,0.279992625
1.14,0.265903288,0.274168314,0.28269024
1.15,0.267934062,0.276342055,0.285013897
1.16,0.270769328,0.27903185,0.287546504
1.17,0.273747341,0.282114867,0.29073816
1.18,0.275800958,0.284424759,0.29331821
1.19,0.278054754,0.286585122,0.295377192
1.2,0.280636603,0.289593771,0.298836827
1.21,0.283412317,0.292230843,0.301323762
1.22,0.285981891,0.294700084,0.303684052
1.23,0.287976673,0.297051322,0.30641193
1.24,0.290728689,0.299707407,0.30896342
1.25,0.293377888,0.302368373,0.311634368
1.26,0.296022328,0.305161999,0.314583857
1.27,0.298339249,0.307632129,0.31721447
1.28,0.301308006,0.310439364,0.319847455
1.29,0.303796077,0.313066483,0.322619777
1.3,0.305896265,0.315384621,0.325167289
1.31,0.308752346,0.318258865,0.328058091
1.32,0.311558212,0.321006897,0.330742135
1.33,0.313994644,0.32373884,0.333785427
1.34,0.316287827,0.326134907,0.336288557
1.35,0.319078866,0.329076686,0.339387772
1.36,0.321739531,0.33163597,0.341836817
1.37,0.324650779,0.334386629,0.344414445
1.38,0.327177817,0.337148735,0.347423523
1.39,0.32942738,0.339695842,0.350284377
1.4,0.332516763,0.342618614,0.353027358
1.41,0.335096319,0.345277293,0.355767586
1.42,0.337425632,0.347586083,0.358052483
1.43,0.340259956,0.350649965,0.361357239
1.44,0.343098312,0.353368317,0.363945736
1.45,0.345228348,0.355901698,0.366905034
1.46,0.348234635,0.358632657,0.369341156
1.47,0.35120012,0.361650581,0.37241201
1.48,0.353513153,0.364176671,0.375161847
1.49,0.355827926,0.366722621,0.377950887
1.5,0.359118125,0.369813715,0.380827851
1.51,0.361409578,0.372535131,0.384003171
1.52,0.363848138,0.374899768,0.386287083
1.53,0.366846789,0.377729604,0.388935266
1.54,0.369963925,0.380910069,0.392180076
1.55,0.372067137,0.383187095,0.394639395
1.56,0.37486565,0.386052616,0.397573431
1.57,0.377305452,0.388933624,0.400920164
1.58,0.380664869,0.391841174,0.403345614
1.59,0.382733885,0.394383468,0.406387638
1.6,0.38538417,0.397159217,0.409294039
1.61,0.388373853,0.400017,0.412009199
1.62,0.390810023,0.402453321,0.414443504
1.63,0.39335921,0.405247347,0.417494768
1.64,0.396661071,0.408585765,0.420868947
1.65,0.39865989,0.410658131,0.423017476
1.66,0.401457285,0.41328118,0.425453317
1.67,0.403848317,0.415820481,0.428147562
1.68,0.407296493,0.418989479,0.431018155
1.69,0.409040061,0.421526572,0.434394251
1.7,0.412175942,0.42408609,0.436340392
1.71,0.41514844,0.427162562,0.439524364
1.72,0.417698257,0.429992315,0.442648223
1.73,0.420020825,0.432641919,0.445642261
1.74,0.422472962,0.43489395,0.447680123
1.75,0.425139289,0.437546059,0.450314894
1.76,0.428310368,0.440714104,0.453477047
1.77,0.430927998,0.443563383,0.456569253
1.78,0.433610315,0.446120063,0.45899072
1.79,0.436073946,0.448696788,0.461685019
1.8,0.438589157,0.451508235,0.464807858
1.81,0.441132401,0.454217334,0.467690393
1.82,0.444511931,0.457183131,0.470215535
1.83,0.446559253,0.459447575,0.472707873
1.84,0.449254919,0.462319573,0.475764156
1.85,0.4514528,0.464492249,0.477908321
1.86,0.454220191,0.467465122,0.481096272
1.87,0.456296444,0.469772372,0.483646288
1.88,0.458901612,0.472108165,0.485694784
1.89,0.46150055,0.474990493,0.488874755
1.9,0.464565746,0.477845012,0.491503856
1.91,0.466729775,0.480140907,0.493937398
1.92,0.470630653,0.483796471,0.497330601
1.93,0.471972011,0.485591523,0.499604047
1.94,0.474771673,0.48836339,0.502344209
1.95,0.477167299,0.490538157,0.504283684
1.96,0.479915162,0.493357522,0.507176401
1.97,0.482411532,0.496075737,0.510126977
1.98,0.484637179,0.498313231,0.51237521
1.99,0.486523837,0.500761563,0.515415943
2,0.489937378,0.503703491,0.517856401
2.01,0.49282032,0.506542262,0.520646274
2.02,0.494322223,0.508487875,0.523059469
2.03,0.49714687,0.511010653,0.525261052
2.04,0.499517921,0.513304837,0.527472278
2.05,0.501455397,0.515541211,0.530022695
2.06,0.504563117,0.518826419,0.533492925
2.07,0.506629741,0.52127355,0.536340629
2.08,0.509347914,0.523678316,0.538411901
2.09,0.511760928,0.525974919,0.540583698
2.1,0.514619138,0.528655772,0.543075266
2.11,0.51672534,0.530919586,0.545503742
2.12,0.51929231,0.533460805,0.548015876
2.13,0.521455712,0.535488445,0.549898808
2.14,0.524191277,0.538750435,0.553713966
2.15,0.525832044,0.539962451,0.554472576
2.16,0.528842841,0.543000122,0.557536398
2.17,0.53031331,0.544876143,0.559838884
2.18,0.532816144,0.547449059,0.562483842
2.19,0.535729515,0.550218484,0.565099311
2.2,0.53778834,0.552422497,0.567454874
2.21,0.540376037,0.55481189,0.569633389
2.22,0.542702336,0.557244148,0.572175611
2.23,0.545051474,0.559629298,0.574597016
2.24,0.546233927,0.56129281,0.576766844
2.25,0.54904366,0.563738628,0.578826903
2.26,0.551461225,0.566176498,0.581284435
2.27,0.55361525,0.56858761,0.583964893
2.28,0.555000949,0.5700394,0.585485338
2.29,0.557685794,0.572564684,0.58784054
2.3,0.559441805,0.574597551,0.590163878
2.31,0.562208907,0.576959725,0.592097563
2.32,0.564732054,0.579883761,0.595441987
2.33,0.566918616,0.581459867,0.596374096
2.34,0.568355288,0.583560441,0.599172376
2.35,0.57060204,0.585505804,0.600798845
2.36,0.573601296,0.588215367,0.603201771
2.37,0.575451606,0.590658409,0.606267065
2.38,0.577590439,0.592447014,0.607685725
2.39,0.579369716,0.594272374,0.609558362
2.4,0.581600145,0.596665026,0.612120125
2.41,0.584239833,0.598747088,0.613614572
2.42,0.585061892,0.600634811,0.616622242
2.43,0.588327016,0.603422307,0.618904914
2.44,0.589910187,0.605259303,0.621007793
2.45,0.591493557,0.606747834,0.622395509
2.46,0.5937918,0.60878243,0.624151508
2.47,0.595850384,0.611016627,0.626568898
2.48,0.5979941,0.61291091,0.628199816
2.49,0.598073904,0.613674954,0.629682965
2.5,0.601544693,0.616910037,0.63266786
2.51,0.603913302,0.618979515,0.634421595
2.52,0.605374299,0.62104526,0.637121886
2.53,0.607944848,0.62301604,0.638460853
2.54,0.610012284,0.625300131,0.640971114
2.55,0.611571027,0.626900045,0.642613284
2.56,0.613147221,0.62856661,0.644373766
2.57,0.614576015,0.630505713,0.646848305
2.58,0.617767658,0.632695186,0.647983418
2.59,0.619402745,0.634803991,0.650588185
2.6,0.621624894,0.63727225,0.653313477
2.61,0.622799567,0.638414465,0.654420861
2.62,0.625043953,0.640403684,0.656140863
2.63,0.626546017,0.642483508,0.658826403
2.64,0.628339109,0.644076546,0.660208144
2.65,0.630225319,0.645610372,0.661371004
2.66,0.631799834,0.647386187,0.663357053
2.67,0.633688626,0.649577649,0.665865071
2.68,0.635887381,0.651387522,0.667265488
2.69,0.638037351,0.653536739,0.669412642
2.7,0.638474765,0.654391239,0.670704492
2.71,0.64113462,0.656549578,0.672335162
2.72,0.64360044,0.659097505,0.67496772
2.73,0.644048947,0.659740286,0.675813923
2.74,0.646838616,0.662337798,0.678208361
2.75,0.647152585,0.662834981,0.678897407
2.76,0.649687111,0.665368565,0.681428521
2.77,0.651655062,0.667217373,0.683151331
2.78,0.653474939,0.668791868,0.684467814
2.79,0.655257917,0.670998829,0.687117877
2.8,0.656825921,0.672404804,0.688353194
2.81,0.658305667,0.674137912,0.690350922
2.82,0.659295861,0.674736959,0.690539697
2.83,0.661520302,0.677318678,0.693494349
2.84,0.662924833,0.679032199,0.695530933
2.85,0.664502669,0.680311903,0.696497256
2.86,0.666578666,0.681827122,0.697424396
2.87,0.668481815,0.683997299,0.699872897
2.88,0.66927117,0.685078053,0.701258264
2.89,0.671126792,0.687109298,0.703472419
2.9,0.673414974,0.688877569,0.704695207
2.91,0.674823975,0.690519246,0.706579562
2.92,0.67553329,0.691420618,0.707681587
2.93,0.678209872,0.693760841,0.709668384
2.94,0.679253317,0.694892799,0.710892373
2.95,0.680415899,0.695769971,0.711470517
2.96,0.682386203,0.698069649,0.714113551
2.97,0.683884727,0.699333432,0.715131119
2.98,0.684920879,0.700291902,0.716007881
2.99,0.686597229,0.702359361,0.718483342
3,0.688357477,0.703922677,0.719839839
3.01,0.689547864,0.705200354,0.72120815
3.02,0.690779981,0.706301121,0.722171004
3.03,0.693343069,0.708896702,0.724799247
3.04,0.693811652,0.709302046,0.725138286
3.05,0.695313535,0.711236761,0.727524641
3.06,0.696618021,0.712240849,0.728214045
3.07,0.699039803,0.714279566,0.729851571
3.08,0.700142965,0.715678026,0.731557785
3.09,0.700659858,0.716733901,0.733176704
3.1,0.701654007,0.717675309,0.734062435
3.11,0.703952738,0.719581526,0.735557296
3.12,0.705522473,0.720919996,0.73665356
3.13,0.706776184,0.72260733,0.738793079
3.14,0.708118606,0.723492751,0.739200689
3.15,0.709013966,0.724775933,0.740888302
3.16,0.710963635,0.726425057,0.74222272
3.17,0.711767923,0.727250257,0.743069361
3.18,0.713863828,0.729412254,0.745299334
3.19,0.714538729,0.730362751,0.746537207
3.2,0.716591504,0.731627383,0.746978752
3.21,0.716758277,0.732513953,0.748615968
3.22,0.718141645,0.733893415,0.749990684
3.23,0.719702499,0.735654385,0.751959838
3.24,0.72118751,0.736680741,0.752506813
3.25,0.722706615,0.737958001,0.75353124
3.26,0.723689984,0.739260869,0.755166777
3.27,0.724241077,0.739935718,0.755970469
3.28,0.726564073,0.742106764,0.757981945
3.29,0.728106604,0.743484016,0.759186195
3.3,0.728853219,0.74431118,0.760096983
3.31,0.729792809,0.745588144,0.761725347
3.32,0.730761166,0.746518713,0.762616043
3.33,0.732598691,0.747919382,0.76356047
3.34,0.733859006,0.74948349,0.765440633
3.35,0.734967587,0.750412228,0.766181423
3.36,0.736150783,0.751280324,0.766720811
3.37,0.737183876,0.752764174,0.768673759
3.38,0.738818879,0.754528203,0.770571552
3.39,0.739633218,0.755299069,0.771296732
3.4,0.740778728,0.756575759,0.772709659
3.41,0.742386739,0.757644063,0.773214951
3.42,0.743907137,0.759355179,0.775124017
3.43,0.744121696,0.759432454,0.77505824
3.44,0.74425367,0.760159182,0.776404612
3.45,0.746320814,0.761893051,0.777790208
3.46,0.747573948,0.762915534,0.778571957
3.47,0.749022916,0.764274521,0.779836679
3.48,0.749182389,0.764716458,0.780572622
3.49,0.750796046,0.766356032,0.782238494
3.5,0.752149685,0.767523632,0.783211823
3.51,0.752641508,0.767997262,0.783666311
3.52,0.754027281,0.769367367,0.785019536
3.53,0.755540119,0.770512028,0.785780623
3.54,0.756353076,0.771803535,0.787569609
3.55,0.757461559,0.77245084,0.787736741
3.56,0.7585392,0.773864158,0.78949873
3.57,0.759026997,0.774554543,0.79039974
3.58,0.760371314,0.775428996,0.790784866
3.59,0.76118767,0.776640437,0.792406907
3.6,0.76189456,0.777145971,0.792702681
3.61,0.764188836,0.778816305,0.793723761
3.62,0.764379745,0.779746505,0.795422192
3.63,0.765400141,0.780708395,0.79632282
3.64,0.766123245,0.781831729,0.797862297
3.65,0.768073332,0.783319166,0.798867622
3.66,0.768781286,0.78373349,0.798976502
3.67,0.769909272,0.784952001,0.800288639
3.68,0.771202185,0.786267649,0.801627417
3.69,0.771590991,0.786762994,0.802233328
3.7,0.771475389,0.787137319,0.803117207
3.71,0.773782994,0.788568046,0.803635604
3.72,0.774726598,0.789949078,0.805470662
3.73,0.775372795,0.790744567,0.806421084
3.74,0.776461672,0.791468588,0.806765548
3.75,0.776810788,0.792273833,0.808044683
3.76,0.778984035,0.793901793,0.80910523
3.77,0.779576154,0.794397269,0.809500159
3.78,0.779467626,0.794483202,0.809788036
3.79,0.78119737,0.79609993,0.811286781
3.8,0.781679568,0.796744106,0.812098968
3.81,0.782753192,0.797524059,0.812573657
3.82,0.784250776,0.798979019,0.813983858
3.83,0.784809031,0.799529351,0.814525773
3.84,0.784973392,0.800140244,0.815600141
3.85,0.785582402,0.800904078,0.816524582
3.86,0.787544554,0.802135094,0.816995948
3.87,0.788471373,0.803248068,0.818301692
3.88,0.789454825,0.804009267,0.818832037
3.89,0.789723646,0.804614325,0.819785776
3.9,0.791253616,0.806361191,0.821757219
3.91,0.791251153,0.806558088,0.82216114
3.92,0.792176092,0.807369993,0.822855313
3.93,0.792799945,0.807704169,0.822888586
3.94,0.793365539,0.808007677,0.822920046
3.95,0.794383222,0.809518312,0.824941765
3.96,0.795740039,0.810548788,0.825633128
3.97,0.796416382,0.811503195,0.826875804
3.98,0.797257861,0.811974261,0.826962307
3.99,0.798284483,0.812837471,0.827655764
4,0.799637949,0.814551188,0.82974256
4.01,0.800058228,0.814878815,0.829973943
4.02,0.800496828,0.815095244,0.829959887
4.03,0.801390764,0.81604193,0.830960951
4.04,0.801015545,0.816139646,0.831549308
4.05,0.803508326,0.81807469,0.832905119
4.06,0.803297678,0.818184861,0.833347943
4.07,0.804055012,0.819088081,0.834402216
4.08,0.804811817,0.820023727,0.83552316
4.09,0.805700853,0.820233738,0.83502876
4.1,0.806715476,0.821018144,0.835574392
4.11,0.807517592,0.822035452,0.836814321
4.12,0.808469374,0.822841884,0.837469901
4.13,0.809759972,0.823680127,0.837839576
4.14,0.81063046,0.824619019,0.838848971
4.15,0.810314642,0.824914466,0.839777343
4.16,0.811458557,0.826120328,0.841047014
4.17,0.811968407,0.826165606,0.840611042
4.18,0.813375427,0.827490176,0.841849861
4.19,0.814107874,0.828516247,0.843179625
4.2,0.814210869,0.828606965,0.8432576
4.21,0.815383255,0.829833119,0.844539056
4.22,0.814747949,0.829470489,0.844459065
4.23,0.816372626,0.830713755,0.845306813
4.24,0.816654587,0.831322503,0.846253869
4.25,0.81807474,0.832159983,0.84648774
4.26,0.81845086,0.83289897,0.847602134
4.27,0.818748397,0.833257021,0.848022744
4.28,0.819848367,0.834444608,0.849300716
4.29,0.819732113,0.834643615,0.849826368
4.3,0.821157418,0.835426218,0.849942959
4.31,0.821471612,0.83624576,0.851285621
4.32,0.823366809,0.837443516,0.851760887
4.33,0.823261577,0.837747228,0.852487761
4.34,0.824303929,0.838285255,0.852503724
4.35,0.824558573,0.838324227,0.852319692
4.36,0.82471837,0.839085385,0.853702682
4.37,0.82566957,0.840046491,0.854673749
4.38,0.826248704,0.840540199,0.855078892
4.39,0.827006629,0.841473806,0.856194064
4.4,0.827868591,0.841920447,0.856210813
4.41,0.828327354,0.843162991,0.85826434
4.42,0.829048407,0.843368112,0.857935154
4.43,0.830503107,0.844159941,0.858041348
4.44,0.830523373,0.844395438,0.858499205
4.45,0.830421546,0.84432361,0.858458407
4.46,0.831720973,0.845708643,0.859931555
4.47,0.831783561,0.846285966,0.861041225
4.48,0.833100208,0.847102916,0.861340981
4.49,0.833174969,0.847229023,0.861520141
4.5,0.833980016,0.847993141,0.862241726
4.51,0.834641587,0.84819358,0.861965616
4.52,0.834671207,0.848889603,0.863350205
4.53,0.834999291,0.849043528,0.863323981
4.54,0.835830603,0.849801087,0.864005082
4.55,0.8375422,0.851445673,0.865579948
4.56,0.837212525,0.851407947,0.865844061
4.57,0.838350381,0.852373115,0.866630401
4.58,0.83906145,0.852666496,0.866492143
4.59,0.839307829,0.853297806,0.867520976
4.6,0.840085067,0.854050849,0.868248801
4.61,0.840577532,0.854246039,0.868136808
4.62,0.841700631,0.855204754,0.868925534
4.63,0.841465579,0.855269526,0.869299922
4.64,0.842208903,0.856066587,0.870152284
4.65,0.843125705,0.856855605,0.870809091
4.66,0.843582827,0.857191541,0.871019792
4.67,0.843383749,0.857331364,0.87150964
4.68,0.844416867,0.858285487,0.872381884
4.69,0.844739858,0.858561613,0.872609522
4.7,0.845794399,0.859259784,0.872939543
4.71,0.846363289,0.859844866,0.873541189
4.72,0.846481852,0.860156599,0.874052259
4.73,0.846802487,0.86046765,0.874353333
4.74,0.847612241,0.86125067,0.875108548
4.75,0.848995963,0.862250928,0.875712837
4.76,0.848338446,0.8620603,0.876004105
4.77,0.849221617,0.862666575,0.876324394
