flow depth [m],16th percentile vulnerability,median vulnerability,84th percentile vulnerability
0.000001,0.003601099,0.003719734,0.003842278
0.01,0.007036527,0.007928428,0.00893338
0.02,0.009014284,0.010219844,0.011586635
0.03,0.010735604,0.012200412,0.013865083
0.04,0.012405266,0.014049048,0.015910643
0.05,0.014012225,0.015877272,0.017990559
0.06,0.015594868,0.017637814,0.019948389
0.07,0.017187349,0.019374115,0.021839106
0.08,0.018678379,0.021057014,0.023738561
0.09,0.020377486,0.022874725,0.025677997
0.1,0.021945067,0.024578811,0.027528644
0.11,0.02345123,0.02625152,0.029386191
0.12,0.024941486,0.027932244,0.031281627
0.13,0.026736109,0.029794251,0.03320219
0.14,0.028285951,0.031465971,0.035003501
0.15,0.029939319,0.033257797,0.036944096
0.16,0.031547954,0.035045593,0.038931006
0.17,0.033322734,0.036843295,0.040735804
0.18,0.034956367,0.038688284,0.042818618
0.19,0.036638559,0.040383947,0.044512209
0.2,0.038223897,0.042195806,0.046580441
0.21,0.040126379,0.044138116,0.048550936
0.22,0.041922868,0.046065117,0.050616647
0.23,0.043522012,0.047831913,0.052568615
0.24,0.045250234,0.049676277,0.054535243
0.25,0.047010033,0.051567277,0.056566309
0.26,0.048896993,0.053504262,0.058545646
0.27,0.050856448,0.055547309,0.060670843
0.28,0.052501993,0.057402046,0.062759426
0.29,0.054150843,0.059187888,0.064693472
0.3,0.055931747,0.061166168,0.066890457
0.31,0.057941159,0.063135235,0.068794928
0.32,0.05977584,0.065111598,0.07092364
0.33,0.061771335,0.067122666,0.072937591
0.34,0.063475391,0.068988433,0.0749803
0.35,0.065562147,0.071143852,0.077200761
0.36,0.067281012,0.072913889,0.079018359
0.37,0.069282912,0.075028772,0.081251156
0.38,0.071315657,0.077182165,0.083531259
0.39,0.073114894,0.079262581,0.085927182
0.4,0.075167841,0.08112717,0.087558955
0.41,0.077351443,0.083401085,0.089923868
0.42,0.07924466,0.085418,0.092072258
0.43,0.081063915,0.087473566,0.094390022
0.44,0.083195539,0.089704529,0.096722765
0.45,0.0848929,0.091672996,0.098994596
0.46,0.087180434,0.093802448,0.100927454
0.47,0.089104275,0.095909241,0.103233907
0.48,0.091284736,0.098080737,0.105382689
0.49,0.092691768,0.099955254,0.107787919
0.5,0.095345791,0.102390247,0.109955171
0.51,0.09724633,0.104370218,0.112015974
0.52,0.099230151,0.106412587,0.114114899
0.53,0.101378848,0.10881621,0.116799192
0.54,0.103363337,0.11082811,0.118831979
0.55,0.105786939,0.113294311,0.121334458
0.56,0.107655231,0.115270064,0.123423522
0.57,0.109804298,0.11737762,0.125473283
0.58,0.11194319,0.119685123,0.127962483
0.59,0.113859975,0.121828594,0.130354906
0.6,0.116100773,0.124231914,0.132932523
0.61,0.118144783,0.126203423,0.134811742
0.62,0.120001962,0.128267567,0.137102499
0.63,0.12259094,0.130746417,0.139444446
0.64,0.124479686,0.132748426,0.141566429
0.65,0.126471292,0.134991383,0.144085453
0.66,0.129035964,0.137421431,0.146351832
0.67,0.130948528,0.139423384,0.148446724
0.68,0.133002434,0.141683878,0.150931984
0.69,0.135079615,0.143860458,0.1532121
0.7,0.137151634,0.14599822,0.15541543
0.71,0.139673852,0.148413298,0.157699574
0.72,0.141352551,0.150466491,0.160168067
0.73,0.143816185,0.152827334,0.162403098
0.74,0.145563679,0.154726718,0.164466557
0.75,0.147966204,0.157307423,0.16723836
0.76,0.150045092,0.159477142,0.169502105
0.77,0.152319953,0.16175237,0.17176889
0.78,0.154123775,0.163708534,0.173889357
0.79,0.156720768,0.166282569,0.176427751
0.8,0.158723091,0.168333776,0.178526387
0.81,0.160990695,0.17072815,0.181054571
0.82,0.162899636,0.172783759,0.183267612
0.83,0.165361444,0.175318869,0.185875891
0.84,0.167584137,0.177393241,0.187776495
0.85,0.169095258,0.179528752,0.190606011
0.86,0.171317159,0.181554002,0.192402535
0.87,0.17361535,0.184271074,0.195580799
0.88,0.175983889,0.186298146,0.197216913
0.89,0.177984861,0.188662786,0.199981317
0.9,0.179716562,0.190404222,0.201727472
0.91,0.182263759,0.193022089,0.204415442
0.92,0.184388409,0.195227447,0.206703643
0.93,0.186625654,0.197385483,0.208765666
0.94,0.188809785,0.199518341,0.210834244
0.95,0.191075446,0.201655723,0.212821855
0.96,0.1935974,0.204203766,0.215391208
0.97,0.195454609,0.206488589,0.218145469
0.98,0.197503704,0.208703375,0.220538135
0.99,0.199707667,0.210706763,0.222311646
1,0.201249307,0.212867635,0.225156701
1.01,0.204686258,0.215728126,0.227365652
1.02,0.205710951,0.217372772,0.229695706
1.03,0.208139239,0.219437726,0.231349533
1.04,0.210523655,0.221773177,0.233623827
1.05,0.212060018,0.223792843,0.236174821
1.06,0.214259514,0.226119317,0.238635588
1.07,0.216850749,0.228730496,0.241261051
1.08,0.21831226,0.230467664,0.243299869
1.09,0.220779871,0.232894001,0.245672831
1.1,0.223018214,0.235424514,0.248520965
1.11,0.224973382,0.237273683,0.250246497
1.12,0.228013237,0.239687594,0.251959682
1.13,0.229139985,0.241236312,0.253971204
1.14,0.231462395,0.243617547,0.256411021
1.15,0.233704839,0.246061537,0.259071572
1.16,0.235650804,0.248040001,0.261080553
1.17,0.237649927,0.250132133,0.263269948
1.18,0.240099342,0.252562797,0.265673225
1.19,0.241849826,0.254704471,0.268242357
1.2,0.244178974,0.256603497,0.269660216
1.21,0.246320136,0.258830065,0.27197534
1.22,0.248428507,0.261349147,0.274941784
1.23,0.24997703,0.262597019,0.275854123
1.24,0.252675409,0.265888851,0.279793278
1.25,0.254230697,0.267396567,0.281244259
1.26,0.256513079,0.269517336,0.283180861
1.27,0.259014186,0.271980426,0.285595757
1.28,0.260758633,0.273822157,0.287540139
1.29,0.262988031,0.276063077,0.289788178
1.3,0.265246005,0.277970823,0.291306097
1.31,0.266594977,0.279762109,0.293579567
1.32,0.268600547,0.282344675,0.296792081
1.33,0.271284534,0.284719903,0.298820658
1.34,0.272401649,0.28619976,0.300696794
1.35,0.274277713,0.288061203,0.302537364
1.36,0.277475921,0.290464363,0.304060783
1.37,0.278613419,0.292221951,0.306495176
1.38,0.281453038,0.295170833,0.309557223
1.39,0.28331727,0.297077659,0.311506374
1.4,0.284568917,0.298492291,0.313096906
1.41,0.286934503,0.300574478,0.314862855
1.42,0.28877222,0.302622308,0.317136673
1.43,0.291326014,0.305074601,0.319472027
1.44,0.293234951,0.307051331,0.321518699
1.45,0.295517555,0.309277509,0.323678156
1.46,0.297008405,0.310839922,0.325315565
1.47,0.299469942,0.313305745,0.327780776
1.48,0.301633828,0.315546798,0.33010151
1.49,0.303105082,0.31708706,0.331714015
1.5,0.304075073,0.318457807,0.333520844
1.51,0.30698467,0.321159947,0.33598978
1.52,0.30895225,0.323367157,0.338454626
1.53,0.310628176,0.324864648,0.339753595
1.54,0.312742172,0.327156772,0.342235756
1.55,0.314406255,0.328933619,0.34413223
1.56,0.31665821,0.330863783,0.34570663
1.57,0.318605,0.333015944,0.348078715
1.58,0.320235751,0.33463707,0.349686031
1.59,0.322012041,0.33653777,0.351718745
1.6,0.324340584,0.339086108,0.354502008
1.61,0.326107686,0.340710388,0.355966981
1.62,0.328369147,0.342902516,0.358079121
1.63,0.330024457,0.344397213,0.359395911
1.64,0.332527644,0.346951913,0.362001872
1.65,0.334045047,0.348833192,0.364276006
1.66,0.33598167,0.350559566,0.365769983
1.67,0.338285997,0.352664991,0.367655171
1.68,0.33935384,0.354190585,0.369676001
1.69,0.341222896,0.356231171,0.371899566
1.7,0.343822168,0.358334883,0.37346018
1.71,0.344922703,0.359964091,0.375661403
1.72,0.347304078,0.362111914,0.377551106
1.73,0.348609231,0.36379181,0.379635618
1.74,0.350173859,0.365587204,0.381678988
1.75,0.352734164,0.367777334,0.383462055
1.76,0.354467446,0.369658908,0.385501432
1.77,0.356380359,0.37147708,0.387213317
1.78,0.358405355,0.373295743,0.388804769
1.79,0.360564498,0.375203402,0.390436644
1.8,0.36180932,0.376971602,0.392769286
1.81,0.363670115,0.378515421,0.393966725
1.82,0.366047955,0.380784539,0.396114397
1.83,0.367844842,0.382882478,0.398534859
1.84,0.36909569,0.384272186,0.400072709
1.85,0.3708702,0.386290928,0.402352848
1.86,0.372656862,0.388160734,0.404309623
1.87,0.374459131,0.390345773,0.406906414
1.88,0.375555243,0.391067211,0.407219887
1.89,0.37741327,0.393155764,0.409554901
1.9,0.379352022,0.394844551,0.410969787
1.91,0.381814607,0.397209155,0.413224401
1.92,0.383989103,0.399270101,0.415159212
1.93,0.385399081,0.400288703,0.415753576
1.94,0.387275602,0.402296321,0.417899627
1.95,0.388436336,0.403801567,0.419774594
1.96,0.390969452,0.405974167,0.421554735
1.97,0.391946426,0.407520514,0.423713443
1.98,0.393564212,0.409404476,0.425882284
1.99,0.395126846,0.410744157,0.426978739
2,0.397979811,0.412859893,0.428296326
2.01,0.398382641,0.414141806,0.43052437
2.02,0.401074725,0.416583565,0.432692104
2.03,0.402309648,0.417656251,0.433588268
2.04,0.404230677,0.419471281,0.435286498
2.05,0.405665489,0.42104561,0.437008842
2.06,0.407198505,0.423051419,0.439521515
2.07,0.408984211,0.424607159,0.440826895
2.08,0.411394394,0.426631969,0.442433926
2.09,0.412214516,0.428256864,0.44492354
2.1,0.414243018,0.429685644,0.445703957
2.11,0.416595958,0.431861929,0.447687314
2.12,0.41761857,0.43331216,0.449595495
2.13,0.419907237,0.435482124,0.451634703
2.14,0.420651912,0.436680963,0.453320805
2.15,0.422461738,0.437994327,0.454097999
2.16,0.423587765,0.439635586,0.456291386
2.17,0.425528937,0.441337276,0.457732893
2.18,0.42712712,0.442835166,0.459120892
2.19,0.429325505,0.444859698,0.460955963
2.2,0.430624986,0.446395332,0.46274322
2.21,0.43202246,0.448056501,0.464685629
2.22,0.433678119,0.449924126,0.466778724
2.23,0.435422317,0.451216611,0.467583818
2.24,0.436856956,0.452473466,0.468648226
2.25,0.438635153,0.454038071,0.469981872
2.26,0.439624709,0.455832186,0.472637177
2.27,0.441570813,0.457538521,0.47408364
2.28,0.44380139,0.458908461,0.47452978
2.29,0.44525236,0.460917933,0.477134677
2.3,0.446794048,0.462475591,0.478707525
2.31,0.448311712,0.464367068,0.480997414
2.32,0.449464407,0.465420661,0.481943372
2.33,0.451036722,0.467102826,0.483741212
2.34,0.452763045,0.468448271,0.484676886
2.35,0.454120078,0.47003492,0.486507506
2.36,0.456109962,0.471564417,0.487542518
2.37,0.457380324,0.473598573,0.490391906
2.38,0.45821854,0.474156989,0.490649834
2.39,0.460125384,0.475875978,0.492165731
2.4,0.46165789,0.477909484,0.494733177
2.41,0.463654944,0.47921142,0.495289846
2.42,0.465102439,0.480875257,0.497182972
2.43,0.465826174,0.481937285,0.498605616
2.44,0.467968379,0.484063421,0.500712026
2.45,0.469627687,0.485354405,0.501607773
2.46,0.470015358,0.486841528,0.504270061
2.47,0.472223449,0.488236538,0.504792631
2.48,0.474442837,0.490214919,0.506511318
2.49,0.475589321,0.491449971,0.507839566
2.5,0.476864414,0.49252691,0.508703837
2.51,0.47721718,0.493495916,0.51032995
2.52,0.479381306,0.495182968,0.511505494
2.53,0.481038951,0.497017457,0.513526715
2.54,0.482765778,0.498324868,0.514385413
2.55,0.482591949,0.498942139,0.515846272
2.56,0.485094907,0.500994576,0.517415379
2.57,0.487269124,0.503143961,0.519535988
2.58,0.488464767,0.504289208,0.520626301
2.59,0.490158089,0.505788785,0.521917931
2.6,0.491400849,0.507369704,0.523857493
2.61,0.49208887,0.50817731,0.524791748
2.62,0.493704503,0.509791826,0.526403354
2.63,0.49563973,0.511569855,0.528011984
2.64,0.496854511,0.512899547,0.529462729
2.65,0.498528944,0.514196431,0.530356307
2.66,0.498850038,0.515013008,0.531699666
2.67,0.501291608,0.516826082,0.532841952
2.68,0.502668013,0.518325111,0.534469896
2.69,0.504439332,0.519782225,0.535591784
2.7,0.505426448,0.520995339,0.537043806
2.71,0.506563324,0.522193278,0.538305492
2.72,0.507297109,0.523352441,0.539915905
2.73,0.508083364,0.524464914,0.541374635
2.74,0.510328763,0.526617067,0.54342525
2.75,0.5119056,0.527530843,0.543633025
2.76,0.513058427,0.528975195,0.545385754
2.77,0.51383944,0.529988473,0.546645041
2.78,0.515486454,0.531198837,0.547390145
2.79,0.517481864,0.533183319,0.549361188
2.8,0.51860939,0.534627479,0.551140312
2.81,0.519911751,0.535827333,0.552230125
2.82,0.521594013,0.537007708,0.552876895
2.83,0.522378026,0.538398524,0.554910344
2.84,0.524354732,0.539977258,0.55606524
2.85,0.524747004,0.540982829,0.557720994
2.86,0.526337497,0.542322751,0.558793489
2.87,0.527221594,0.54331857,0.559907013
2.88,0.529399308,0.544793671,0.560635685
2.89,0.529067567,0.545644821,0.562741489
2.9,0.532374844,0.547690924,0.563447637
2.91,0.532758281,0.548664307,0.565045223
2.92,0.533590724,0.548979874,0.564812858
2.93,0.535562425,0.55170437,0.568332836
2.94,0.53661618,0.55273884,0.569345906
2.95,0.537823597,0.5537178,0.570081721
2.96,0.538798831,0.554646722,0.570960754
2.97,0.540342836,0.555876877,0.571857498
2.98,0.541469177,0.557353679,0.573704167
2.99,0.542483356,0.55806574,0.574095714
3,0.544040664,0.560076035,0.576584041
3.01,0.545440709,0.561014818,0.577033619
3.02,0.546879024,0.562486061,0.578538497
3.03,0.548524249,0.564161702,0.580244951
3.04,0.549319109,0.564648817,0.580406328
3.05,0.550225855,0.565872849,0.581964802
3.06,0.55098012,0.566900124,0.58328012
3.07,0.552818333,0.568547914,0.584725055
3.08,0.554425111,0.56973195,0.585461387
3.09,0.554552582,0.570424111,0.586749891
3.1,0.556676069,0.57163501,0.586995926
3.11,0.556937645,0.572776733,0.589066277
3.12,0.558592303,0.574357382,0.590567396
3.13,0.559849515,0.575353623,0.591287092
3.14,0.560726347,0.576362738,0.592435165
3.15,0.562697761,0.578087628,0.593898412
3.16,0.563171764,0.57897904,0.59523
3.17,0.564666752,0.580293438,0.59635258
3.18,0.565190381,0.581293385,0.597855185
3.19,0.566772161,0.582682891,0.599040276
3.2,0.568088057,0.583530743,0.599393218
3.21,0.569030359,0.584367234,0.600117479
3.22,0.570660528,0.586000874,0.601753595
3.23,0.571349729,0.586768369,0.602603101
3.24,0.572572183,0.587808844,0.603450965
3.25,0.573957998,0.589252131,0.604953803
3.26,0.574937145,0.590569373,0.606626632
3.27,0.576390745,0.591692609,0.607400703
3.28,0.577242121,0.592483828,0.608127983
3.29,0.578179214,0.593907103,0.610062828
3.3,0.579628718,0.594824215,0.610418076
3.31,0.581229583,0.596500542,0.612172724
3.32,0.581710444,0.597158748,0.613017307
3.33,0.582403787,0.597921855,0.613853401
3.34,0.583148607,0.59875758,0.614784353
3.35,0.584771085,0.600406296,0.616459551
3.36,0.585560647,0.600978028,0.616801338
3.37,0.58709927,0.602507008,0.618319104
3.38,0.587985737,0.603437114,0.61929453
3.39,0.589328766,0.604675777,0.620422447
3.4,0.590390033,0.605782814,0.621576919
3.41,0.591885192,0.607441905,0.6234075
3.42,0.592798786,0.608045534,0.623684429
3.43,0.594089086,0.608892894,0.62406559
3.44,0.594003582,0.60973066,0.625874134
3.45,0.595866333,0.610990714,0.626498985
3.46,0.597606642,0.612796531,0.628372514
3.47,0.597829256,0.613023795,0.628604521
3.48,0.598293046,0.613574496,0.62924626
3.49,0.600409618,0.61523972,0.630436126
3.5,0.600765858,0.616404142,0.632449498
3.51,0.602479376,0.617502127,0.632899469
3.52,0.602751927,0.61802605,0.63368723
3.53,0.604494247,0.619299945,0.634468273
3.54,0.605154416,0.620332177,0.635890608
3.55,0.605596899,0.620970841,0.636735073
3.56,0.607814291,0.622989419,0.63854342
3.57,0.608309373,0.623331068,0.638723712
3.58,0.609425363,0.624196552,0.639325764
3.59,0.610153439,0.625106693,0.640426412
3.6,0.610864907,0.626166197,0.641850761
3.61,0.611906224,0.627321794,0.643125723
3.62,0.613862166,0.628685412,0.643866602
3.63,0.614267726,0.629216998,0.644530086
3.64,0.615700079,0.630307218,0.645260903
3.65,0.616258247,0.631142302,0.64638584
3.66,0.616894616,0.631990648,0.647456096
3.67,0.618146022,0.633140132,0.648497948
3.68,0.619460851,0.634653524,0.650218806
3.69,0.619937807,0.634944268,0.650313981
3.7,0.621155444,0.636168232,0.651543865
3.71,0.62210385,0.636961999,0.652175016
3.72,0.622864317,0.637729481,0.652949414
3.73,0.624078567,0.638493857,0.653242119
3.74,0.625064536,0.640054155,0.655403239
3.75,0.625244602,0.640459565,0.656044775
3.76,0.626838602,0.64175615,0.657028706
3.77,0.628059008,0.64294411,0.658181992
3.78,0.628649097,0.643736265,0.659185515
3.79,0.629633116,0.644582031,0.659885868
3.8,0.630553007,0.645339008,0.66047173
3.81,0.631804626,0.646286023,0.661099345
3.82,0.632818613,0.647687559,0.662905871
3.83,0.633617464,0.648187511,0.663092597
3.84,0.634512144,0.649066922,0.663955564
3.85,0.636076984,0.650516671,0.665284154
3.86,0.636128159,0.650789716,0.665789195
3.87,0.636506885,0.651488861,0.666823481
3.88,0.63814653,0.652621325,0.667424444
3.89,0.639067988,0.653757506,0.668784674
3.9,0.640420368,0.654752393,0.669405155
3.91,0.640517715,0.655146301,0.670108985
3.92,0.641697553,0.656112884,0.670852047
3.93,0.642465538,0.657068328,0.672003029
3.94,0.643278427,0.657878638,0.672810224
3.95,0.644275805,0.658942804,0.673943699
3.96,0.64489913,0.659644156,0.674726313
3.97,0.6464605,0.660808955,0.675475879
3.98,0.647080176,0.661334994,0.675903838
3.99,0.647918794,0.66261556,0.677645694
4,0.649451915,0.663398716,0.677645021
4.01,0.650280545,0.664537296,0.679106613
4.02,0.650521509,0.665029346,0.679860736
4.03,0.651016355,0.665657456,0.68062783
4.04,0.651664621,0.666284739,0.68123286
4.05,0.652946229,0.667333135,0.68203704
4.06,0.654093897,0.668183799,0.682577214
4.07,0.655174019,0.669129771,0.683382793
4.08,0.655334234,0.669676516,0.684332685
4.09,0.656865391,0.671126101,0.685696415
4.1,0.657179112,0.671749966,0.686643883
4.11,0.658267209,0.67252174,0.687084949
4.12,0.659993785,0.673994128,0.688291458
4.13,0.660065442,0.674116656,0.688466987
4.14,0.661055346,0.674898224,0.68903098
4.15,0.660652837,0.675112656,0.689888959
4.16,0.662062211,0.67653034,0.691314643
4.17,0.663006496,0.677104416,0.691502109
4.18,0.663386287,0.67801957,0.692975641
4.19,0.664808255,0.679094926,0.693688616
4.2,0.665358485,0.679938788,0.694838596
4.21,0.667007552,0.680899657,0.695081099
4.22,0.667512047,0.681355379,0.695485804
4.23,0.668294719,0.682145918,0.6962842
4.24,0.668944472,0.682876458,0.697098602
4.25,0.669462343,0.683794689,0.698433872
4.26,0.670091555,0.684342312,0.698896137
4.27,0.671337595,0.685298491,0.699549713
4.28,0.6726122,0.686434732,0.700541324
4.29,0.672841796,0.686551924,0.700541415
4.3,0.67300637,0.687427257,0.702157149
4.31,0.674348898,0.688222642,0.702381818
4.32,0.674789793,0.689121164,0.703756909
4.33,0.676266835,0.690103112,0.704222477
4.34,0.676709295,0.690596469,0.704768631
4.35,0.677495496,0.691359394,0.705506995
4.36,0.679003352,0.692422564,0.706106981
4.37,0.679184808,0.693136181,0.707374133
4.38,0.679682212,0.693380492,0.707354845
4.39,0.680269497,0.694052419,0.708114596
4.4,0.681057332,0.694731889,0.70868101
4.41,0.681712472,0.695690848,0.709955848
4.42,0.683187379,0.696821917,0.710728563
4.43,0.683863903,0.697628894,0.71167095
4.44,0.68434192,0.698048659,0.712029932
4.45,0.684410809,0.698379917,0.71263414
4.46,0.685539502,0.69902039,0.712766374
4.47,0.686336137,0.699791282,0.713510206
4.48,0.686927892,0.700793207,0.714938386
4.49,0.68787284,0.701570444,0.715540809
4.5,0.688634891,0.702265041,0.716164973
4.51,0.688943284,0.702792973,0.71692108
4.52,0.689732107,0.703498346,0.717539343
4.53,0.690516907,0.704059259,0.717867202
4.54,0.691660569,0.705135289,0.71887252
4.55,0.692211662,0.706183344,0.720437031
4.56,0.693188321,0.706717262,0.720510247
4.57,0.694089103,0.707438231,0.721044096
4.58,0.694401667,0.707954481,0.721771809
4.59,0.694923426,0.708503012,0.722347959
4.6,0.69606182,0.7092121,0.722610821
4.61,0.696750793,0.710157039,0.723821236
4.62,0.697589779,0.711024922,0.724718817
4.63,0.697930797,0.711305972,0.72493747
4.64,0.698312053,0.711986486,0.725928695
4.65,0.699744853,0.712863358,0.726227803
4.66,0.699680637,0.713164855,0.726908939
4.67,0.700878204,0.713859824,0.727081889
4.68,0.701604169,0.715006192,0.72866422
4.69,0.701472665,0.715123573,0.729040132
4.7,0.701930822,0.715539358,0.729411726
4.71,0.703454238,0.716935144,0.730674395
4.72,0.70445384,0.717478876,0.730744739
4.73,0.704301675,0.717505706,0.730957283
4.74,0.70576025,0.718973574,0.73243428
4.75,0.706656898,0.719577023,0.732733371
4.76,0.706903585,0.719998308,0.733335598
4.77,0.706852505,0.720279438,0.733961422
