flow depth [m],16th percentile vulnerability,median vulnerability,84th percentile vulnerability
0.000001,0.010677655,0.011019851,0.011373013
0.01,0.011446635,0.011830956,0.012228181
0.02,0.012880916,0.013357858,0.01385246
0.03,0.01453076,0.015087204,0.015664957
0.04,0.016275846,0.016932649,0.017615958
0.05,0.018111731,0.018856013,0.019630882
0.06,0.019968401,0.020777545,0.021619475
0.07,0.021869531,0.022778097,0.023724409
0.08,0.023816007,0.024821694,0.025869849
0.09,0.025876089,0.026931987,0.028030972
0.1,0.027778874,0.028965615,0.030203054
0.11,0.029808901,0.031068512,0.03238135
0.12,0.031899627,0.033278596,0.034717174
0.13,0.033883399,0.035349998,0.036880077
0.14,0.036058714,0.03756765,0.039139729
0.15,0.03812455,0.039781014,0.04150945
0.16,0.04035562,0.042072345,0.0438621
0.17,0.042442426,0.044267798,0.046171676
0.18,0.044575591,0.046473392,0.048451991
0.19,0.046706948,0.048741386,0.050864439
0.2,0.048848481,0.050898484,0.053034518
0.21,0.050980416,0.053114843,0.055338634
0.22,0.053176412,0.05542521,0.057769109
0.23,0.055329905,0.057692048,0.060155035
0.24,0.057505738,0.059871517,0.062334623
0.25,0.059795641,0.062271442,0.064849751
0.26,0.061970668,0.06450787,0.067148951
0.27,0.064033797,0.066663475,0.069401147
0.28,0.066320724,0.069104128,0.072004347
0.29,0.068458228,0.071261562,0.074179691
0.3,0.070709938,0.073687055,0.076789518
0.31,0.072929879,0.075876144,0.078941434
0.32,0.074987426,0.077994645,0.081122462
0.33,0.077322021,0.080545131,0.083902593
0.34,0.079339008,0.082623509,0.086043983
0.35,0.081701138,0.084905191,0.088234896
0.36,0.083751468,0.087155124,0.090697103
0.37,0.086089775,0.089439934,0.092920465
0.38,0.088278538,0.091721798,0.09529936
0.39,0.09038642,0.09389931,0.09754873
0.4,0.092759923,0.096358531,0.100096746
0.41,0.09502108,0.098699766,0.102520869
0.42,0.097323845,0.101112664,0.105048983
0.43,0.099267096,0.103143794,0.107171889
0.44,0.101522957,0.105363361,0.109349039
0.45,0.103819751,0.107779555,0.111890391
0.46,0.105999332,0.110011039,0.114174576
0.47,0.108388235,0.112473595,0.116712939
0.48,0.110548571,0.1145954,0.118790371
0.49,0.112780899,0.117113221,0.121611964
0.5,0.115228535,0.119525399,0.123982493
0.51,0.117081718,0.121431373,0.12594262
0.52,0.119220071,0.123790628,0.128536406
0.53,0.121698894,0.126104232,0.130669038
0.54,0.123762602,0.128352451,0.133112519
0.55,0.12621951,0.130894453,0.135742548
0.56,0.128035884,0.13268422,0.137501313
0.57,0.130475722,0.135186248,0.140066836
0.58,0.132894684,0.137671903,0.14262085
0.59,0.135056148,0.139902195,0.144922125
0.6,0.137247486,0.142208722,0.147349296
0.61,0.139577045,0.144777164,0.15017102
0.62,0.141888618,0.146840997,0.151966231
0.63,0.144103866,0.14938048,0.154850307
0.64,0.146286449,0.151411116,0.15671531
0.65,0.148406024,0.153835265,0.159463128
0.66,0.150673889,0.156080616,0.161681355
0.67,0.152968518,0.158518834,0.164270538
0.68,0.155464257,0.161080593,0.166899826
0.69,0.157782056,0.163329101,0.169071161
0.7,0.159862969,0.165571761,0.171484417
0.71,0.162108364,0.167918547,0.173936976
0.72,0.164523877,0.170604563,0.176909987
0.73,0.167039852,0.172803807,0.178766656
0.74,0.169454816,0.175385763,0.181524294
0.75,0.171461167,0.177618633,0.183997225
0.76,0.174169837,0.180120806,0.186275105
0.77,0.176218345,0.182407546,0.188814126
0.78,0.178514072,0.184875786,0.191464212
0.79,0.180839675,0.187150211,0.193680957
0.8,0.182997253,0.189476926,0.196186035
0.81,0.18577209,0.192163529,0.198774864
0.82,0.187912449,0.194412731,0.201137872
0.83,0.190333046,0.196961557,0.203820911
0.84,0.192616728,0.199111999,0.205826299
0.85,0.195428588,0.202199907,0.209205844
0.86,0.197913522,0.204493095,0.211291404
0.87,0.200500614,0.207019946,0.213751256
0.88,0.202290478,0.209214494,0.216375507
0.89,0.204721681,0.211525575,0.218555595
0.9,0.207131665,0.21439025,0.221903201
0.91,0.209551739,0.216641716,0.223971576
0.92,0.211884368,0.21935221,0.227083256
0.93,0.214809217,0.222143754,0.229728724
0.94,0.216887789,0.224276361,0.231916636
0.95,0.219426967,0.227132939,0.235109534
0.96,0.22209812,0.229558301,0.237269066
0.97,0.224344557,0.232075068,0.240071958
0.98,0.227099029,0.234561374,0.242268926
0.99,0.229845052,0.237576782,0.245568599
1,0.232058329,0.239880818,0.247966997
1.01,0.234223089,0.242138344,0.250321084
1.02,0.237083463,0.244843739,0.252858026
1.03,0.239336149,0.247220236,0.255364036
1.04,0.24191535,0.249982223,0.258318094
1.05,0.244646807,0.252774154,0.261171499
1.06,0.247498756,0.255420395,0.26359558
1.07,0.249641727,0.258063361,0.266769097
1.08,0.251781348,0.260310463,0.269128503
1.09,0.254919577,0.263054104,0.271448204
1.1,0.257226198,0.265527117,0.274095915
1.11,0.259977923,0.268444256,0.2771863
1.12,0.262416522,0.270809347,0.279470598
1.13,0.265212093,0.273640093,0.282335921
1.14,0.267614975,0.276383433,0.285439192
1.15,0.270168676,0.278851705,0.287813799
1.16,0.272774778,0.281747286,0.29101493
1.17,0.275038176,0.284018785,0.293292631
1.18,0.2781908,0.287182364,0.296464548
1.19,0.280585983,0.289575458,0.29885294
1.2,0.28325212,0.292375356,0.30179244
1.21,0.285880223,0.29531582,0.305062842
1.22,0.288275276,0.297608778,0.307244471
1.23,0.290680489,0.299944251,0.309503241
1.24,0.294130993,0.303293954,0.312742365
1.25,0.296114301,0.305714,0.315624912
1.26,0.299002299,0.308571849,0.318447672
1.27,0.301511317,0.311039615,0.320869025
1.28,0.304675626,0.314176367,0.323973371
1.29,0.307020262,0.316919246,0.327137394
1.3,0.308982362,0.319021336,0.32938648
1.31,0.31139088,0.321684824,0.332319066
1.32,0.314778034,0.324769878,0.335078888
1.33,0.317022959,0.326915841,0.337117436
1.34,0.319678679,0.329968817,0.340590184
1.35,0.323147695,0.333373254,0.343922387
1.36,0.325227221,0.335800709,0.346717952
1.37,0.328246593,0.338762392,0.349615079
1.38,0.33020134,0.340740674,0.351616402
1.39,0.33342228,0.343763586,0.354425636
1.4,0.335082201,0.345813045,0.35688754
1.41,0.339244353,0.349564991,0.360199608
1.42,0.340877148,0.3516989,0.362864209
1.43,0.343780688,0.354932186,0.366445414
1.44,0.346384552,0.357071832,0.368088855
1.45,0.349173884,0.359832543,0.370816561
1.46,0.35168932,0.36274447,0.374147132
1.47,0.354515919,0.365282171,0.376375383
1.48,0.357235179,0.368291541,0.379690094
1.49,0.359271783,0.370539016,0.382159605
1.5,0.36253563,0.373888668,0.385597234
1.51,0.365267764,0.376451495,0.387977648
1.52,0.367210543,0.378818717,0.390793845
1.53,0.370411208,0.381820656,0.39358154
1.54,0.372694188,0.384089067,0.395832337
1.55,0.375547532,0.38715843,0.399128305
1.56,0.37757849,0.38966891,0.402146476
1.57,0.380915946,0.392675858,0.40479883
1.58,0.383703049,0.395516194,0.407693033
1.59,0.386192285,0.397775821,0.409706796
1.6,0.389566468,0.401373538,0.41353846
1.61,0.39197788,0.403769326,0.41591548
1.62,0.394315154,0.406116864,0.418271794
1.63,0.396995182,0.408749428,0.420851694
1.64,0.398946022,0.411094886,0.423613711
1.65,0.402105844,0.414183327,0.426623564
1.66,0.404984695,0.416974548,0.429319369
1.67,0.407601229,0.419674872,0.432106151
1.68,0.409473827,0.421742349,0.434378456
1.69,0.412171742,0.424658649,0.437523851
1.7,0.415015233,0.427302516,0.439953587
1.71,0.418568668,0.430963012,0.443724368
1.72,0.420107978,0.432867495,0.446014543
1.73,0.423625341,0.43562257,0.447959566
1.74,0.425451048,0.438035415,0.450992013
1.75,0.427974035,0.440743358,0.453893675
1.76,0.430787182,0.443826722,0.457260957
1.77,0.433849824,0.446775764,0.460086813
1.78,0.435107045,0.448349543,0.461995078
1.79,0.438999524,0.451867155,0.465111953
1.8,0.440716541,0.453921598,0.467522314
1.81,0.444219668,0.456700653,0.46953231
1.82,0.446453783,0.45930251,0.472521017
1.83,0.448507783,0.461653619,0.475184763
1.84,0.450497928,0.464036029,0.477980969
1.85,0.453863158,0.46717067,0.480868366
1.86,0.45641593,0.469507886,0.482975375
1.87,0.45836354,0.471561124,0.485138704
1.88,0.460973677,0.474036217,0.487468908
1.89,0.464498554,0.477736617,0.491351962
1.9,0.465928077,0.479735219,0.493951516
1.91,0.46936182,0.482468498,0.495941172
1.92,0.471711539,0.485247748,0.499172393
1.93,0.473812968,0.487148824,0.500860029
1.94,0.476701957,0.490022007,0.503714247
1.95,0.478452987,0.491948969,0.50582564
1.96,0.481461703,0.495026348,0.508973161
1.97,0.484442736,0.497738653,0.511399486
1.98,0.485905687,0.499287011,0.513036842
1.99,0.488759822,0.50232178,0.51626005
2,0.491236581,0.50531182,0.519790351
2.01,0.494732659,0.507783594,0.521178811
2.02,0.497408969,0.510930582,0.524819768
2.03,0.498807271,0.512457642,0.526481569
2.04,0.499982529,0.51386665,0.528136323
2.05,0.50291465,0.516722918,0.530910313
2.06,0.506062832,0.519919746,0.534156086
2.07,0.508345848,0.52252113,0.537091692
2.08,0.510419555,0.524624954,0.539225701
2.09,0.512668911,0.526854142,0.541431871
2.1,0.515090873,0.529268906,0.543837195
2.11,0.518062614,0.531929981,0.546168545
2.12,0.520486635,0.534447602,0.548783044
2.13,0.522603072,0.536890569,0.551568673
2.14,0.523723334,0.538229813,0.553138104
2.15,0.526905538,0.541308718,0.556105616
2.16,0.529512143,0.543687498,0.558242336
2.17,0.532132095,0.546343832,0.560935124
2.18,0.534093435,0.548235249,0.562751513
2.19,0.535793897,0.550305161,0.565209444
2.2,0.538545541,0.55292258,0.567683428
2.21,0.540990884,0.555254154,0.569893475
2.22,0.544195162,0.558260133,0.572688618
2.23,0.545038122,0.559717094,0.574791401
2.24,0.546710952,0.561518746,0.576727613
2.25,0.549950804,0.56443479,0.579300238
2.26,0.553305694,0.567526026,0.58211183
2.27,0.555457362,0.569396457,0.58368535
2.28,0.55736966,0.571574422,0.586141196
2.29,0.559040478,0.573311287,0.587946393
2.3,0.561693808,0.575908852,0.590483642
2.31,0.563588047,0.578337222,0.593472385
2.32,0.565445648,0.579894691,0.594712956
2.33,0.567247056,0.582134606,0.597412885
2.34,0.569548709,0.584337084,0.59950944
2.35,0.57235559,0.586876211,0.601765219
2.36,0.573614103,0.588282116,0.603325208
2.37,0.576954261,0.591247871,0.605895594
2.38,0.578503126,0.593399214,0.608678868
2.39,0.580977767,0.5957236,0.610843698
2.4,0.582631199,0.597622341,0.612999206
2.41,0.584643824,0.59960848,0.614956173
2.42,0.586537528,0.601387068,0.616612557
2.43,0.589059743,0.603987748,0.61929406
2.44,0.591234063,0.606504735,0.622169824
2.45,0.592609793,0.607736148,0.623248604
2.46,0.595615296,0.610259375,0.625263499
2.47,0.597389466,0.612404676,0.62779729
2.48,0.599678494,0.614781365,0.630264602
2.49,0.601804562,0.616878393,0.632329789
2.5,0.603080362,0.617764645,0.632806473
2.51,0.606126327,0.621165167,0.636577143
2.52,0.607271776,0.62199539,0.637075986
2.53,0.609525203,0.624294336,0.639421334
2.54,0.612005306,0.626656005,0.641657426
2.55,0.614696446,0.629053316,0.643745506
2.56,0.614930617,0.629832219,0.645094933
2.57,0.61790295,0.633003809,0.648473716
2.58,0.618723176,0.633928706,0.649507923
2.59,0.622378001,0.63719225,0.652359117
2.6,0.624522435,0.638874274,0.653555926
2.61,0.625394692,0.640227225,0.655411542
2.62,0.627963287,0.642742221,0.657868973
2.63,0.629087146,0.643967514,0.65919986
2.64,0.631669519,0.646549954,0.661780933
2.65,0.633020223,0.648079435,0.663496896
2.66,0.635244973,0.649854148,0.664799301
2.67,0.637678764,0.652118426,0.666885061
2.68,0.638643959,0.653712679,0.669136943
2.69,0.640434392,0.655866028,0.671669498
2.7,0.643119973,0.658173459,0.673579302
2.71,0.644115393,0.659457999,0.67516606
2.72,0.645994371,0.660948242,0.676248275
2.73,0.647389794,0.662523986,0.678011973
2.74,0.649733947,0.664714376,0.680040197
2.75,0.652432988,0.666915005,0.681718479
2.76,0.653747181,0.668730989,0.684058224
2.77,0.65513237,0.670201815,0.68561789
2.78,0.657318749,0.672047952,0.687107207
2.79,0.658736055,0.673718053,0.689040794
2.8,0.661239142,0.676257844,0.691617666
2.81,0.663026514,0.67828898,0.693902778
2.82,0.663641652,0.678730252,0.694161907
2.83,0.665368908,0.680677311,0.69633792
2.84,0.668020858,0.682779117,0.697863422
2.85,0.669650678,0.684509388,0.699697793
2.86,0.670590746,0.685870303,0.701498007
2.87,0.673250615,0.688154156,0.703387612
2.88,0.674598126,0.689442812,0.704614159
2.89,0.6769367,0.691488522,0.706353159
2.9,0.678117227,0.693215279,0.708649483
2.91,0.679621297,0.694511012,0.709726944
2.92,0.681428548,0.696725005,0.712364832
2.93,0.682482923,0.697673667,0.713202527
2.94,0.684858991,0.699682112,0.714826066
2.95,0.685405458,0.700606234,0.716144129
2.96,0.688401535,0.703259175,0.718437486
2.97,0.689877364,0.704467589,0.719366384
2.98,0.691764867,0.706297003,0.721134419
2.99,0.692513747,0.707440138,0.722688252
3,0.693973046,0.708842596,0.724030751
3.01,0.695761671,0.710957494,0.726485201
3.02,0.697288447,0.712361776,0.727760946
3.03,0.698662115,0.714172759,0.730027747
3.04,0.700678846,0.715449409,0.730531341
3.05,0.70241164,0.717109304,0.732114509
3.06,0.704015673,0.718443656,0.733167323
3.07,0.704528846,0.71988524,0.735576351
3.08,0.706872373,0.721963554,0.73737692
3.09,0.708257767,0.723114851,0.738283592
3.1,0.71058896,0.725248781,0.740211041
3.11,0.710655758,0.725766782,0.741199118
3.12,0.712410915,0.727215652,0.742328049
3.13,0.714635694,0.729304706,0.744274822
3.14,0.715387106,0.730536382,0.746006464
3.15,0.716723132,0.731481618,0.746544006
3.16,0.718979689,0.73345072,0.748213011
3.17,0.719961259,0.734728052,0.74979772
3.18,0.721247074,0.736039618,0.751135553
3.19,0.724324079,0.739029845,0.754034179
3.2,0.724288491,0.739006722,0.754024042
3.21,0.726274203,0.740811787,0.755640365
3.22,0.727267572,0.742188539,0.757415631
3.23,0.729093619,0.743897214,0.759001382
3.24,0.730157631,0.744807978,0.759752278
3.25,0.732004364,0.74628237,0.760838873
3.26,0.732606541,0.746925901,0.761525144
3.27,0.73529053,0.750103329,0.765214539
3.28,0.735008361,0.749898482,0.765090253
3.29,0.737462741,0.751562284,0.765931397
3.3,0.738800074,0.752582552,0.766622145
3.31,0.740406426,0.754641296,0.769149842
3.32,0.741741404,0.755991796,0.770515968
3.33,0.742335035,0.75666778,0.771277256
3.34,0.743441043,0.758156926,0.773164098
3.35,0.74472018,0.759356618,0.774280716
3.36,0.745691778,0.760099694,0.774785992
3.37,0.747651657,0.762550946,0.77774715
3.38,0.749561132,0.763589472,0.777880358
3.39,0.750684817,0.765156138,0.77990643
3.4,0.751891725,0.766088994,0.780554337
3.41,0.753376174,0.767557912,0.782006611
3.42,0.754655777,0.768779637,0.783167833
3.43,0.755213118,0.769599605,0.784260149
3.44,0.756552592,0.77051908,0.784743399
3.45,0.757913895,0.772204291,0.786764132
3.46,0.759381804,0.773897975,0.788691634
3.47,0.760366734,0.774402198,0.788696741
3.48,0.761440812,0.775835699,0.790502719
3.49,0.762761452,0.776689149,0.790871159
3.5,0.763884259,0.778603579,0.793606526
3.51,0.764879927,0.779469168,0.794336683
3.52,0.766485875,0.780571697,0.794916376
3.53,0.767243287,0.781471427,0.795963421
3.54,0.768354702,0.782822542,0.797562806
3.55,0.769467604,0.783632689,0.798058539
3.56,0.771365777,0.785763883,0.800430741
3.57,0.77208744,0.786316517,0.800807826
3.58,0.774031413,0.788183401,0.802594136
3.59,0.774996977,0.788880228,0.803012183
3.6,0.77563528,0.789567643,0.803750266
3.61,0.776715486,0.791068825,0.805687406
3.62,0.778546104,0.792348011,0.806394595
3.63,0.779307927,0.79305439,0.807043331
3.64,0.780369908,0.794666134,0.809224264
3.65,0.781325035,0.795299263,0.809523424
3.66,0.782858956,0.796467343,0.810312284
3.67,0.783697954,0.797746482,0.812046842
3.68,0.785425719,0.799189589,0.813194657
3.69,0.785779713,0.799510654,0.813481534
3.7,0.787527281,0.801452552,0.815624052
3.71,0.788123779,0.802138093,0.816401607
3.72,0.78795843,0.802363348,0.817031606
3.73,0.789588043,0.803800801,0.818269393
3.74,0.790696365,0.804842907,0.819242547
3.75,0.791991429,0.805704225,0.819654448
3.76,0.793389311,0.807156065,0.821161697
3.77,0.794826265,0.808612734,0.822638333
3.78,0.795083032,0.808862654,0.82288109
3.79,0.796359129,0.810206634,0.824294927
3.8,0.797417829,0.811040247,0.824895379
3.81,0.798182356,0.811638568,0.825321632
3.82,0.799768625,0.813537844,0.827544121
3.83,0.800434482,0.813956192,0.827706324
3.84,0.80060027,0.814484686,0.828609893
3.85,0.803088776,0.816331994,0.829793597
3.86,0.802893426,0.816594876,0.830530141
3.87,0.803891663,0.817847724,0.832046071
3.88,0.805606851,0.819389522,0.833407993
3.89,0.806329484,0.819653369,0.83319742
3.9,0.806955384,0.820786978,0.834855651
3.91,0.808232865,0.821749843,0.835492881
3.92,0.809633096,0.822764346,0.836108568
3.93,0.81010749,0.823176804,0.836456963
3.94,0.811456257,0.824871764,0.838509066
3.95,0.812403361,0.825456578,0.838719528
3.96,0.812832402,0.826217404,0.839822818
3.97,0.81398226,0.827494293,0.841230624
3.98,0.814881963,0.828191591,0.841718608
3.99,0.815733726,0.828880824,0.842239813
4,0.816337835,0.829618083,0.843114375
4.01,0.817840555,0.830932156,0.84423332
4.02,0.818403149,0.831759716,0.845334265
4.03,0.819898865,0.832685406,0.845671356
4.04,0.819777981,0.83298533,0.846405461
4.05,0.821071883,0.834464702,0.848075975
4.06,0.822104725,0.835367958,0.848845171
4.07,0.821762975,0.835290799,0.849041317
4.08,0.823682344,0.837126073,0.850789223
4.09,0.823767667,0.836853068,0.850146329
4.1,0.825417582,0.838536363,0.851863646
4.11,0.825735464,0.839113384,0.852708042
4.12,0.826525904,0.8396044,0.852889843
4.13,0.827954987,0.840830192,0.853905615
4.14,0.828980404,0.841637592,0.854488035
4.15,0.828785451,0.842137759,0.855705182
4.16,0.830693521,0.843697171,0.85690438
4.17,0.831858125,0.844242093,0.856810422
4.18,0.832408021,0.845094195,0.857973712
4.19,0.832887103,0.845835798,0.858985803
4.2,0.833180232,0.846325602,0.859678371
4.21,0.834368261,0.847391785,0.860618591
4.22,0.835827481,0.848389874,0.861141079
4.23,0.836257985,0.849417138,0.862783359
4.24,0.837448063,0.850232156,0.863211405
4.25,0.837304903,0.850348776,0.863595851
4.26,0.838058205,0.85120101,0.864549926
4.27,0.839564968,0.852130246,0.864883581
4.28,0.84006258,0.852546765,0.865216477
4.29,0.840680232,0.853318506,0.866146777
4.3,0.841547606,0.854196223,0.867034951
4.31,0.843060004,0.855772781,0.868677258
4.32,0.843646365,0.856166343,0.868872123
4.33,0.843997243,0.856531047,0.869250984
4.34,0.845084735,0.857688672,0.870480589
4.35,0.845381438,0.858053207,0.870914919
4.36,0.846552147,0.858831788,0.871289551
4.37,0.846128451,0.85894943,0.871964678
4.38,0.847553327,0.860046121,0.872723056
4.39,0.84756999,0.860449364,0.873524448
4.4,0.849125057,0.861555028,0.874166956
4.41,0.849924057,0.862379799,0.875018081
4.42,0.850886483,0.862934353,0.875152812
4.43,0.851660813,0.863755277,0.876021494
4.44,0.851743519,0.864075594,0.876586221
4.45,0.852930027,0.865042206,0.877326387
4.46,0.853698999,0.865524917,0.877514654
4.47,0.854254729,0.866097978,0.87810542
4.48,0.854909328,0.86688685,0.879032181
4.49,0.854814797,0.867212018,0.879789033
4.5,0.855805153,0.867864465,0.880093708
4.51,0.856458678,0.868786405,0.881291574
4.52,0.857895838,0.869814251,0.881898241
4.53,0.858608136,0.870579126,0.88271702
4.54,0.859030801,0.871130732,0.883401097
4.55,0.859729393,0.871639051,0.88371369
4.56,0.860016255,0.872143749,0.884442258
4.57,0.860851846,0.873152315,0.885628543
4.58,0.861697521,0.873513593,0.885491693
4.59,0.861832728,0.873917855,0.886172446
4.6,0.863637057,0.875234357,0.88698739
4.61,0.86320084,0.875041482,0.887044545
4.62,0.863868466,0.875865726,0.888029602
4.63,0.863684738,0.87600591,0.888502855
4.64,0.865180043,0.8772931,0.889575747
4.65,0.865530564,0.877488438,0.889611518
4.66,0.865958028,0.877747226,0.889696923
4.67,0.866971129,0.879173572,0.891547763
4.68,0.868267862,0.879808934,0.891503409
4.69,0.868944283,0.880132623,0.891465023
4.7,0.868988743,0.880851016,0.892875218
4.71,0.869647418,0.881560626,0.893637033
4.72,0.870169513,0.88196062,0.893911499
4.73,0.870370117,0.882106367,0.89400087
4.74,0.870777012,0.882633754,0.894651942
4.75,0.871335463,0.883203907,0.895234011
4.76,0.872559398,0.884044904,0.895681595
4.77,0.872916656,0.884686094,0.896614218
