flow depth [m],16th percentile vulnerability,median vulnerability,84th percentile vulnerability
0.000001,0.003579196,0.003696885,0.003818445
0.01,0.006053539,0.006581658,0.007155851
0.02,0.007617717,0.008387719,0.009235554
0.03,0.009146154,0.010078463,0.011105807
0.04,0.010634374,0.011744711,0.012970977
0.05,0.012085261,0.013379046,0.014811338
0.06,0.01359107,0.015002618,0.016560767
0.07,0.015040041,0.016597456,0.018316143
0.08,0.016554239,0.018293609,0.020215738
0.09,0.0181182,0.019948129,0.021962879
0.1,0.019664146,0.021620661,0.023771842
0.11,0.02128615,0.023383842,0.025688256
0.12,0.022820504,0.02505168,0.027501
0.13,0.024548406,0.026884341,0.029442556
0.14,0.026118326,0.028577066,0.031267268
0.15,0.027726944,0.0303099,0.033133475
0.16,0.029362448,0.032104876,0.035103444
0.17,0.03117545,0.033951527,0.036974805
0.18,0.032766498,0.035671915,0.038834956
0.19,0.034546078,0.037583579,0.040888155
0.2,0.036267804,0.039468276,0.042951176
0.21,0.038027545,0.041246546,0.044738033
0.22,0.039808067,0.043132014,0.046733508
0.23,0.041656013,0.045067198,0.048757722
0.24,0.043377659,0.046902214,0.050713148
0.25,0.045138248,0.048787872,0.052732586
0.26,0.046940714,0.05069907,0.054758342
0.27,0.048800037,0.052629983,0.056760514
0.28,0.050723953,0.054711927,0.05901344
0.29,0.052598152,0.0565917,0.060888462
0.3,0.054462285,0.058672193,0.063207525
0.31,0.056204657,0.060541359,0.065212676
0.32,0.058272793,0.062492327,0.067017398
0.33,0.060209874,0.064637361,0.069390419
0.34,0.06187504,0.066411597,0.071280765
0.35,0.064134706,0.068832515,0.073874434
0.36,0.066050667,0.070714159,0.075706917
0.37,0.067942434,0.072652527,0.077689146
0.38,0.070056185,0.074760223,0.079780121
0.39,0.071679041,0.076715454,0.082105743
0.4,0.073734202,0.078831794,0.084281808
0.41,0.075452233,0.080664176,0.086236139
0.42,0.077965518,0.083036914,0.088438188
0.43,0.07970533,0.084960864,0.090562932
0.44,0.081754935,0.087142874,0.092885897
0.45,0.083751626,0.089279716,0.095172691
0.46,0.085660469,0.091252418,0.097209411
0.47,0.087899028,0.093405819,0.099257605
0.48,0.089731392,0.095502107,0.101643942
0.49,0.091822962,0.097568073,0.10367264
0.5,0.093932338,0.099774376,0.105979755
0.51,0.095994331,0.101985183,0.108349913
0.52,0.097713319,0.103912324,0.110504598
0.53,0.100213563,0.106109858,0.112353076
0.54,0.101857226,0.108073445,0.114669033
0.55,0.103966616,0.110216303,0.116841675
0.56,0.106104507,0.11248464,0.119248413
0.57,0.108251034,0.114769689,0.121680885
0.58,0.110358048,0.116841468,0.123705781
0.59,0.112212419,0.118932755,0.126055567
0.6,0.114402689,0.121191795,0.128383793
0.61,0.1166692,0.123354669,0.130423233
0.62,0.118555023,0.125365184,0.132566541
0.63,0.120864274,0.127830386,0.135197996
0.64,0.122774863,0.129758135,0.137138605
0.65,0.124968827,0.132126387,0.139693893
0.66,0.126974224,0.134231584,0.141903748
0.67,0.129017091,0.136248013,0.1438842
0.68,0.131019972,0.13829015,0.145963744
0.69,0.133130521,0.140535426,0.148352203
0.7,0.135413236,0.142941545,0.150888392
0.71,0.137460047,0.144963458,0.15287645
0.72,0.139734664,0.147415418,0.155518359
0.73,0.141794685,0.14932161,0.157248089
0.74,0.143849754,0.151681761,0.159940187
0.75,0.146227306,0.154087285,0.162369752
0.76,0.147657723,0.155806809,0.164405635
0.77,0.15013677,0.158113197,0.166513392
0.78,0.152754086,0.160671724,0.168999754
0.79,0.154355839,0.162746139,0.17159251
0.8,0.156221058,0.164605902,0.173440785
0.81,0.158969809,0.167119263,0.175686491
0.82,0.160421842,0.168906923,0.177840799
0.83,0.162730043,0.171403082,0.180538368
0.84,0.165247215,0.173692592,0.182569592
0.85,0.166676618,0.175550443,0.184896707
0.86,0.16934815,0.178198807,0.187512027
0.87,0.171811966,0.180300781,0.189209007
0.88,0.173735989,0.182574066,0.191861742
0.89,0.175527183,0.184511945,0.193956614
0.9,0.177719557,0.186561319,0.195842971
0.91,0.180015051,0.189007696,0.198449567
0.92,0.182176476,0.191242254,0.200759178
0.93,0.184057291,0.193409762,0.203237459
0.94,0.186081383,0.195520188,0.205437767
0.95,0.188212495,0.197684732,0.207633682
0.96,0.19030747,0.199691489,0.209538232
0.97,0.192944415,0.202472998,0.212472151
0.98,0.194668858,0.204263847,0.214331761
0.99,0.197649281,0.206872944,0.216527046
1,0.199083887,0.208557413,0.218481741
1.01,0.201322246,0.211098685,0.22134988
1.02,0.203548295,0.213159775,0.223225107
1.03,0.205768119,0.215370029,0.22542
1.04,0.207119471,0.21713741,0.227639896
1.05,0.209888881,0.219977495,0.230551032
1.06,0.212594388,0.222503353,0.232874173
1.07,0.214435687,0.224308556,0.234635984
1.08,0.216217343,0.226527779,0.237329873
1.09,0.218495727,0.228935131,0.239873315
1.1,0.220358493,0.230734051,0.241598142
1.11,0.221928211,0.232591754,0.243767674
1.12,0.224961284,0.235201297,0.245907425
1.13,0.226928139,0.237364239,0.24828028
1.14,0.229109501,0.239360757,0.250070694
1.15,0.231762714,0.242234315,0.253179048
1.16,0.233723144,0.244302679,0.255361098
1.17,0.235784555,0.246352248,0.257393577
1.18,0.237632191,0.248354514,0.259560644
1.19,0.239747079,0.250734853,0.262226205
1.2,0.241615871,0.252630223,0.264146679
1.21,0.243624267,0.254653472,0.266181984
1.22,0.24612694,0.25708382,0.268528468
1.23,0.248428161,0.259468946,0.271000412
1.24,0.250245348,0.261486754,0.273233142
1.25,0.25249061,0.26365123,0.275305174
1.26,0.254869892,0.266150317,0.277930009
1.27,0.25694559,0.268053499,0.27964161
1.28,0.258944022,0.270224672,0.281996753
1.29,0.261083936,0.272457457,0.28432644
1.3,0.262887915,0.274518025,0.286662648
1.31,0.264927688,0.276696768,0.288988674
1.32,0.267301041,0.278565846,0.290305382
1.33,0.269761227,0.281299821,0.293331959
1.34,0.271304026,0.283188699,0.295593988
1.35,0.273696897,0.285499448,0.297810957
1.36,0.276591361,0.288205538,0.300307399
1.37,0.278626605,0.290206272,0.302267188
1.38,0.280911081,0.292313179,0.304178084
1.39,0.282548769,0.294247064,0.3064297
1.4,0.284288646,0.296106679,0.308415993
1.41,0.28641583,0.298556656,0.311212117
1.42,0.288881217,0.30080191,0.313214511
1.43,0.290297993,0.302215518,0.314622289
1.44,0.292835807,0.305066359,0.317807731
1.45,0.294800312,0.306714866,0.319110954
1.46,0.29735565,0.309529815,0.322202407
1.47,0.299057623,0.31133606,0.324118614
1.48,0.301459752,0.313802095,0.326649757
1.49,0.303195912,0.315456015,0.328211872
1.5,0.305155537,0.317497103,0.330337807
1.51,0.307690301,0.319823347,0.332434831
1.52,0.309702225,0.322099797,0.334993651
1.53,0.311676398,0.324073111,0.336962894
1.54,0.313014031,0.325796507,0.339100977
1.55,0.315385415,0.328060586,0.341245165
1.56,0.317829303,0.330176956,0.343004315
1.57,0.319261344,0.332023476,0.34529576
1.58,0.322130095,0.334773016,0.347912146
1.59,0.324202603,0.336548958,0.34936549
1.6,0.325264375,0.338298532,0.351855
1.61,0.327502142,0.340045677,0.353069639
1.62,0.329637639,0.342282401,0.35541221
1.63,0.33224837,0.345191032,0.358637873
1.64,0.334047379,0.34697355,0.360399908
1.65,0.336096498,0.349069325,0.362542883
1.66,0.338360939,0.351262426,0.364655839
1.67,0.339850955,0.353078281,0.366820427
1.68,0.342569685,0.355505535,0.368929859
1.69,0.344448472,0.357284058,0.370597951
1.7,0.346231553,0.359226943,0.372710099
1.71,0.347981372,0.361256691,0.375038457
1.72,0.350474564,0.363461336,0.37692933
1.73,0.352822296,0.366036954,0.379746555
1.74,0.353984578,0.367530745,0.381595292
1.75,0.355835112,0.369187883,0.383041719
1.76,0.357988197,0.371822688,0.386191813
1.77,0.360071266,0.373395968,0.38721376
1.78,0.362035259,0.375657044,0.389791357
1.79,0.364183465,0.377636429,0.391586347
1.8,0.366525101,0.379520594,0.392976855
1.81,0.368561583,0.381814748,0.395544486
1.82,0.370097022,0.383476324,0.397339299
1.83,0.371819057,0.385089732,0.398834054
1.84,0.37429959,0.387881456,0.401956155
1.85,0.375702702,0.389409906,0.403617206
1.86,0.377748091,0.391305441,0.405349362
1.87,0.379286084,0.393081828,0.407379365
1.88,0.382055698,0.395621331,0.409668638
1.89,0.383585304,0.397322228,0.411551098
1.9,0.385850086,0.399638359,0.413919352
1.91,0.387641045,0.401114551,0.415056365
1.92,0.389071544,0.402912493,0.417245824
1.93,0.391368843,0.405368434,0.419868802
1.94,0.393790536,0.407536847,0.42176301
1.95,0.394678161,0.40863503,0.423085451
1.96,0.397057952,0.411125935,0.425692353
1.97,0.399547774,0.41353447,0.428010789
1.98,0.401011438,0.414974246,0.429423225
1.99,0.40293582,0.416678311,0.430889502
2,0.404921559,0.418939734,0.433443212
2.01,0.406762654,0.420770544,0.435260831
2.02,0.409123198,0.422746823,0.43682411
2.03,0.410388715,0.424177765,0.438430128
2.04,0.412336975,0.426580049,0.441315113
2.05,0.414652601,0.428318483,0.442434757
2.06,0.416730805,0.43039082,0.444498597
2.07,0.418289031,0.432163906,0.446499018
2.08,0.420347231,0.434054741,0.448209253
2.09,0.421651739,0.435802364,0.450427883
2.1,0.423881401,0.437788332,0.452151529
2.11,0.425613026,0.439672372,0.454196144
2.12,0.4275725,0.441657958,0.456207432
2.13,0.429494494,0.443383965,0.457722608
2.14,0.431312094,0.445588086,0.460336598
2.15,0.432302041,0.446425801,0.461010998
2.16,0.434464408,0.448839908,0.463691063
2.17,0.436968754,0.450826478,0.465123677
2.18,0.438349836,0.452427862,0.466958017
2.19,0.440389626,0.454702986,0.469481552
2.2,0.441608547,0.455812756,0.47047384
2.21,0.443992981,0.458239289,0.472942716
2.22,0.444446074,0.459124839,0.474288401
2.23,0.447461919,0.461404132,0.475780763
2.24,0.448628197,0.462901798,0.477629528
2.25,0.450723496,0.465279343,0.480305261
2.26,0.453250594,0.467434649,0.482062581
2.27,0.454075502,0.46848068,0.483342852
2.28,0.45599574,0.470293547,0.485039664
2.29,0.458386524,0.472605241,0.48726501
2.3,0.459745183,0.47430161,0.489318923
2.31,0.461349551,0.475613982,0.490319454
2.32,0.463413897,0.477608422,0.49223773
2.33,0.464946911,0.479331559,0.494161244
2.34,0.466864047,0.481038175,0.495642634
2.35,0.468478936,0.482643238,0.497235792
2.36,0.47090647,0.484712165,0.498922606
2.37,0.471742704,0.486083346,0.500859933
2.38,0.473927794,0.488288687,0.503084742
2.39,0.475273851,0.489735903,0.504638018
2.4,0.476488952,0.49123186,0.506430923
2.41,0.478725891,0.493151913,0.508012651
2.42,0.480677595,0.495090077,0.509934698
2.43,0.48275774,0.49702888,0.511721899
2.44,0.484146385,0.498425347,0.51312544
2.45,0.485782515,0.500590932,0.515850764
2.46,0.487442692,0.501463917,0.51588846
2.47,0.488917587,0.503307276,0.518120478
2.48,0.490568602,0.50481572,0.519476605
2.49,0.491865708,0.506305964,0.521170158
2.5,0.494444347,0.508694729,0.523355822
2.51,0.495660636,0.51023628,0.525240543
2.52,0.49713556,0.511272675,0.525811809
2.53,0.49907196,0.513758668,0.528877577
2.54,0.500736647,0.51471915,0.529092099
2.55,0.502316487,0.516859974,0.531824536
2.56,0.503142406,0.517933932,0.533160305
2.57,0.505336441,0.519680798,0.53443233
2.58,0.506622901,0.521645776,0.537114124
2.59,0.509504763,0.523633244,0.538153505
2.6,0.510229249,0.524781105,0.539747983
2.61,0.512193234,0.526839151,0.541903862
2.62,0.513807166,0.528067612,0.542723848
2.63,0.514677763,0.529469631,0.544686617
2.64,0.515922383,0.530665208,0.545829318
2.65,0.518094179,0.53254607,0.547401086
2.66,0.520575774,0.534759195,0.549329052
2.67,0.521168368,0.535825971,0.550895812
2.68,0.522690807,0.537216153,0.552145153
2.69,0.525451428,0.539415297,0.553750255
2.7,0.52632761,0.540345529,0.554736794
2.71,0.527999561,0.542310127,0.557008557
2.72,0.529200315,0.543793392,0.558788884
2.73,0.53068731,0.54533853,0.560394241
2.74,0.532250333,0.546563707,0.561262
2.75,0.533540695,0.547971023,0.562791639
2.76,0.535083701,0.549394284,0.564087598
2.77,0.536504829,0.551323343,0.566551152
2.78,0.538087035,0.552234136,0.566753186
2.79,0.540528899,0.554515619,0.568864259
2.8,0.541183062,0.555628301,0.570459112
2.81,0.543100377,0.557702762,0.572697761
2.82,0.544275643,0.558933755,0.573986631
2.83,0.545229377,0.559538222,0.574222583
2.84,0.547921236,0.561987065,0.576413981
2.85,0.54897931,0.562855216,0.577081847
2.86,0.549873397,0.564537046,0.579591736
2.87,0.551649872,0.566044096,0.580813909
2.88,0.553781152,0.567950205,0.582481788
2.89,0.554440214,0.568931187,0.583800899
2.9,0.556159792,0.570591793,0.585398295
2.91,0.556965296,0.571933279,0.587303514
2.92,0.559056197,0.573323367,0.587954638
2.93,0.560261057,0.574556302,0.589216295
2.94,0.561920863,0.576152673,0.590744933
2.95,0.562925133,0.577319905,0.592082772
2.96,0.564904255,0.579063765,0.593578188
2.97,0.566121803,0.580680642,0.595613887
2.98,0.567491786,0.58179245,0.596453488
2.99,0.569092609,0.583528766,0.598331124
3,0.570769454,0.584981436,0.599547291
3.01,0.570982237,0.585746317,0.600892157
3.02,0.572966068,0.587632636,0.602674633
3.03,0.573989557,0.588301137,0.602969556
3.04,0.575219065,0.589659672,0.604462803
3.05,0.577477754,0.5917105,0.606294032
3.06,0.578608251,0.592888598,0.607521392
3.07,0.580321624,0.594493943,0.60901237
3.08,0.582018009,0.596162917,0.610651592
3.09,0.583092794,0.597270351,0.611792628
3.1,0.58448787,0.598295157,0.612428611
3.11,0.58547568,0.599762169,0.61439727
3.12,0.586672286,0.601182301,0.61605119
3.13,0.588513507,0.602617908,0.617060336
3.14,0.58964355,0.603640407,0.61796952
3.15,0.590867975,0.604976074,0.619421031
3.16,0.592089698,0.606221216,0.620690012
3.17,0.593139154,0.607558367,0.622328111
3.18,0.594789684,0.608498274,0.622522816
3.19,0.595966441,0.610495511,0.625378786
3.2,0.597361243,0.611462993,0.625897639
3.21,0.598800112,0.612791099,0.627108985
3.22,0.600506208,0.614274251,0.628357958
3.23,0.601977419,0.615494247,0.629314582
3.24,0.602890725,0.616587973,0.630596412
3.25,0.604072622,0.617911155,0.63206671
3.26,0.604732743,0.618668453,0.632925304
3.27,0.607354667,0.620986962,0.634925239
3.28,0.608017769,0.621854166,0.636005432
3.29,0.608691716,0.622844646,0.637326651
3.3,0.610059134,0.624001266,0.638262028
3.31,0.610285933,0.624925162,0.639915549
3.32,0.613478668,0.627305067,0.641443083
3.33,0.613846962,0.627525435,0.641508708
3.34,0.615015817,0.629126676,0.643561293
3.35,0.616412409,0.630134549,0.644162161
3.36,0.617790018,0.631591744,0.645701806
3.37,0.617838179,0.631757057,0.645989504
3.38,0.61950804,0.633460666,0.647727535
3.39,0.621542869,0.635571367,0.649916494
3.4,0.622211616,0.635881004,0.649850694
3.41,0.623785614,0.637530074,0.651577378
3.42,0.62417368,0.638354965,0.652858451
3.43,0.625336099,0.639451932,0.653886405
3.44,0.627065529,0.64080939,0.654854484
3.45,0.628509424,0.641988093,0.655755818
3.46,0.628752625,0.642411718,0.656367543
3.47,0.631054429,0.644661514,0.658562001
3.48,0.631361976,0.645554647,0.660066363
3.49,0.633486667,0.646936729,0.660672361
3.5,0.634226519,0.647898415,0.661865033
3.51,0.63522249,0.648909982,0.662892405
3.52,0.636820716,0.650267264,0.663997739
3.53,0.637631196,0.651299443,0.665260682
3.54,0.638804576,0.652055946,0.665582203
3.55,0.640587209,0.653863161,0.667414253
3.56,0.640352044,0.654273158,0.668496913
3.57,0.641344973,0.65510998,0.669170423
3.58,0.643272911,0.656775792,0.670562111
3.59,0.644789853,0.657933148,0.671344354
3.6,0.645201076,0.658564824,0.672205369
3.61,0.646648283,0.659844198,0.673309396
3.62,0.647304912,0.660981564,0.674947186
3.63,0.649059866,0.662385397,0.675984509
3.64,0.650151081,0.663450306,0.677021575
3.65,0.65058567,0.663780267,0.677242466
3.66,0.652422923,0.665667222,0.679180382
3.67,0.653377877,0.666592838,0.68007508
3.68,0.654485095,0.667704419,0.681190748
3.69,0.656066447,0.669034402,0.682258683
3.7,0.656672369,0.669860806,0.683314116
3.71,0.656871038,0.670516866,0.684446173
3.72,0.6582532,0.671661999,0.685343939
3.73,0.659930049,0.673255445,0.686849909
3.74,0.660478647,0.673698379,0.687182709
3.75,0.660491202,0.674042742,0.687872323
3.76,0.662714913,0.675721792,0.688983952
3.77,0.663345709,0.676415564,0.689742933
3.78,0.665164294,0.678274859,0.691643837
3.79,0.666043435,0.679069078,0.69234946
3.8,0.666695126,0.679518914,0.692589366
3.81,0.667537503,0.680566846,0.693850503
3.82,0.668616848,0.681808593,0.69526061
3.83,0.669262922,0.682432049,0.695860306
3.84,0.670664722,0.683873246,0.697341908
3.85,0.671696723,0.684866942,0.698295395
3.86,0.672622254,0.685367214,0.698353667
3.87,0.673390414,0.686618423,0.700106281
3.88,0.675045388,0.687957627,0.701116851
3.89,0.67568888,0.688581683,0.701720494
3.9,0.676357136,0.689277193,0.702444053
3.91,0.677945462,0.690403681,0.703090837
3.92,0.678266278,0.691447684,0.704885257
3.93,0.678980519,0.691918687,0.705103395
3.94,0.680423324,0.693250864,0.706320232
3.95,0.681989282,0.694475634,0.707190596
3.96,0.682672681,0.69522652,0.708011215
3.97,0.682710119,0.695694376,0.708925576
3.98,0.684784326,0.697161482,0.709762349
3.99,0.685128781,0.697796722,0.710698892
4,0.686323203,0.698653272,0.711204857
4.01,0.688121521,0.700382005,0.712860939
4.02,0.688400144,0.700990833,0.713811802
4.03,0.689464995,0.701966487,0.714694659
4.04,0.690538555,0.702952983,0.715590596
4.05,0.691523952,0.70367063,0.716030665
4.06,0.691842002,0.704524273,0.717439025
4.07,0.692843006,0.705222802,0.7178238
4.08,0.69349457,0.705745113,0.718212062
4.09,0.694589045,0.706990348,0.719613066
4.1,0.695531777,0.707850885,0.720388187
4.11,0.695867879,0.708150236,0.720649381
4.12,0.697454888,0.710078925,0.722931459
4.13,0.698060126,0.710461054,0.723082283
4.14,0.699256574,0.711751626,0.724469953
4.15,0.699996755,0.712516545,0.725260256
4.16,0.701107332,0.713232751,0.725567875
4.17,0.701775209,0.713814982,0.726061311
4.18,0.702849662,0.714924277,0.727206328
4.19,0.70313963,0.715588948,0.728258686
4.2,0.704331359,0.716534918,0.728949922
4.21,0.705823136,0.71770458,0.729786029
4.22,0.705950811,0.71807962,0.730416812
4.23,0.7075584,0.719564707,0.731774746
4.24,0.70732505,0.719780604,0.732455492
4.25,0.708079395,0.72056289,0.733266469
4.26,0.709181749,0.721054596,0.733126214
4.27,0.710119505,0.722106269,0.73429537
4.28,0.710906185,0.722910021,0.735116546
4.29,0.712653121,0.724302424,0.736142151
4.3,0.712938933,0.724892747,0.73704699
4.31,0.713865729,0.725667168,0.737663704
4.32,0.714333697,0.726342164,0.738552503
4.33,0.716006892,0.72767012,0.739523333
4.34,0.715539285,0.727521544,0.739704454
4.35,0.71713577,0.728896113,0.740849313
4.36,0.718025018,0.7297934,0.741754664
4.37,0.718244469,0.73015671,0.742266517
4.38,0.719840592,0.731631775,0.743616101
4.39,0.719611207,0.731509602,0.743604731
4.4,0.720461399,0.73240421,0.744544993
4.41,0.722121522,0.733592594,0.745245887
4.42,0.721837873,0.733789004,0.745938004
4.43,0.723379257,0.734854217,0.746511205
4.44,0.723822977,0.735726612,0.747826008
4.45,0.724142384,0.736056595,0.748166829
4.46,0.725183178,0.736875517,0.748756376
4.47,0.726200512,0.737721097,0.749424447
4.48,0.726811956,0.738417746,0.750208859
4.49,0.727553035,0.739106231,0.750842885
4.5,0.728119881,0.739494994,0.751047815
4.51,0.729033793,0.740727716,0.752609212
4.52,0.73064031,0.741787537,0.753104835
4.53,0.730768643,0.742247597,0.753906864
4.54,0.731801993,0.743076406,0.754524518
4.55,0.73187642,0.743426857,0.755159584
4.56,0.732756996,0.744254759,0.755932934
4.57,0.733172631,0.744687145,0.756382495
4.58,0.73443097,0.746004784,0.757760989
4.59,0.734884862,0.746135154,0.757557675
4.6,0.735755065,0.747098355,0.758616527
4.61,0.736628579,0.748006711,0.759560591
4.62,0.737412422,0.748679643,0.760119019
4.63,0.737876519,0.749073444,0.760440276
4.64,0.738371438,0.749690195,0.761182461
4.65,0.739052502,0.750619125,0.762366773
4.66,0.740484955,0.751720644,0.763126817
4.67,0.741089403,0.752221587,0.763520992
4.68,0.741341985,0.752370113,0.763562294
4.69,0.742259718,0.753430955,0.764770323
4.7,0.743018956,0.754148554,0.765444861
4.71,0.743653068,0.754809987,0.766134293
4.72,0.744158926,0.755381221,0.766772754
4.73,0.744789002,0.756032808,0.767446356
4.74,0.745922282,0.756782059,0.767799942
4.75,0.746321595,0.757467352,0.768779562
4.76,0.746834147,0.757818359,0.768964124
4.77,0.747536649,0.758553814,0.76973335
