flow depth [m],16th percentile vulnerability,median vulnerability,84th percentile vulnerability
0.000001,0.003561761,0.003678668,0.003799412
0.01,0.003558229,0.003673607,0.003792725
0.02,0.003565668,0.003683334,0.003804883
0.03,0.003564375,0.003685986,0.003811746
0.04,0.003555564,0.003702407,0.003855314
0.05,0.003536908,0.003723125,0.003919146
0.06,0.00351925,0.003753322,0.004002963
0.07,0.003490055,0.00380669,0.004152051
0.08,0.003461732,0.003872099,0.004331113
0.09,0.003436003,0.003968266,0.00458298
0.1,0.003423066,0.004092598,0.004893086
0.11,0.003422038,0.004261616,0.005307181
0.12,0.003452375,0.004469261,0.005785666
0.13,0.003490784,0.004732171,0.006415018
0.14,0.003583015,0.005078685,0.007198697
0.15,0.003718005,0.005523431,0.008205553
0.16,0.003898174,0.006047744,0.00938265
0.17,0.004143949,0.006712318,0.010872531
0.18,0.004477911,0.00755626,0.012750825
0.19,0.004924763,0.008609333,0.015050592
0.2,0.005488634,0.009879568,0.017783273
0.21,0.006220575,0.011428455,0.020996385
0.22,0.007138364,0.01329964,0.024778847
0.23,0.008314019,0.015611064,0.029312577
0.24,0.009821659,0.018324775,0.034189478
0.25,0.011666009,0.021471291,0.039517917
0.26,0.013825708,0.025069025,0.045455611
0.27,0.016651483,0.029355427,0.051751611
0.28,0.019936811,0.034111197,0.058363084
0.29,0.023703306,0.039203299,0.064839
0.3,0.028016406,0.044635625,0.071113299
0.31,0.032602358,0.050237959,0.07741319
0.32,0.037939703,0.056349965,0.083693817
0.33,0.043605087,0.062535624,0.089684587
0.34,0.049057854,0.068343432,0.095210539
0.35,0.055124182,0.074483015,0.100640397
0.36,0.060849551,0.080248825,0.105832725
0.37,0.066424006,0.085654908,0.110453489
0.38,0.072212515,0.090880534,0.114374517
0.39,0.077659004,0.096261171,0.119319236
0.4,0.082605612,0.100666111,0.122675272
0.41,0.088066472,0.105497147,0.126377812
0.42,0.092898258,0.109864618,0.129929608
0.43,0.097204195,0.113735283,0.133077739
0.44,0.10146185,0.117367092,0.135765653
0.45,0.104840402,0.120635133,0.138809419
0.46,0.108786285,0.12396694,0.141265989
0.47,0.112231015,0.126988291,0.143686004
0.48,0.11581573,0.130118033,0.146186554
0.49,0.118250794,0.132515974,0.148502034
0.5,0.12136217,0.135122546,0.150443111
0.51,0.124226986,0.13770665,0.152648969
0.52,0.126842502,0.140192389,0.154947322
0.53,0.129571907,0.142445773,0.156598747
0.54,0.131824889,0.144377395,0.158125165
0.55,0.134407726,0.146738236,0.160199942
0.56,0.136673949,0.148735585,0.161861675
0.57,0.138716502,0.150632199,0.163571449
0.58,0.14076348,0.152690987,0.165629163
0.59,0.142664012,0.154568057,0.167465389
0.6,0.14443331,0.15612956,0.168772976
0.61,0.14619153,0.158138473,0.171061734
0.62,0.148307322,0.160120232,0.172874059
0.63,0.150128804,0.161966783,0.174738212
0.64,0.15204432,0.163740557,0.176336545
0.65,0.153762774,0.165406569,0.177932099
0.66,0.15559838,0.167196785,0.179659742
0.67,0.157096764,0.169000385,0.181805975
0.68,0.158961496,0.170905015,0.183745906
0.69,0.160791874,0.172562429,0.185194633
0.7,0.162570169,0.174648748,0.187624737
0.71,0.16459617,0.176394146,0.189037781
0.72,0.16642087,0.178249592,0.190919067
0.73,0.167751006,0.179972141,0.19308362
0.74,0.169839345,0.181984161,0.194997424
0.75,0.171360605,0.183732264,0.196997115
0.76,0.173328092,0.185694889,0.198944045
0.77,0.175515196,0.187851437,0.201054742
0.78,0.176758066,0.189475295,0.203107491
0.79,0.179118691,0.191833799,0.205451516
0.8,0.180905916,0.193731445,0.207466254
0.81,0.182572636,0.19570044,0.209772192
0.82,0.184671268,0.197689973,0.211626452
0.83,0.186693815,0.199797113,0.213820079
0.84,0.188813577,0.201858667,0.21580504
0.85,0.190525717,0.204102861,0.218647532
0.86,0.192611833,0.206131612,0.220600369
0.87,0.194551674,0.208374682,0.223179823
0.88,0.196311964,0.21021064,0.225093328
0.89,0.199166799,0.212980097,0.227751423
0.9,0.200911179,0.215021494,0.230122798
0.91,0.202825668,0.217297939,0.232802853
0.92,0.205273379,0.219634284,0.234999876
0.93,0.207427331,0.221962507,0.237516216
0.94,0.209564795,0.224382246,0.240247377
0.95,0.212068412,0.226844396,0.242649904
0.96,0.213841617,0.228886498,0.244989865
0.97,0.215767194,0.231173869,0.247680645
0.98,0.218536851,0.233882099,0.250304862
0.99,0.220959915,0.236554951,0.253250663
1,0.222923192,0.238911349,0.256046185
1.01,0.225029063,0.241049324,0.258210098
1.02,0.227598625,0.243913242,0.261397314
1.03,0.230075613,0.246574947,0.264257492
1.04,0.232519193,0.249156982,0.266985278
1.05,0.234615359,0.251676862,0.269979097
1.06,0.236859027,0.254006215,0.272394757
1.07,0.239660869,0.256707769,0.274967203
1.08,0.241932751,0.259634726,0.278631938
1.09,0.244248433,0.262128787,0.281318082
1.1,0.246275947,0.264574902,0.284233518
1.11,0.249541678,0.267975424,0.287770879
1.12,0.251329353,0.270086791,0.290244152
1.13,0.253458971,0.272369798,0.292691581
1.14,0.256331332,0.275851568,0.296858317
1.15,0.25874658,0.278396865,0.299539473
1.16,0.26168492,0.28124511,0.302267368
1.17,0.263417906,0.283759647,0.305672223
1.18,0.265870202,0.286350835,0.308409141
1.19,0.268563962,0.289330623,0.311703062
1.2,0.270404147,0.291866085,0.315031454
1.21,0.273819469,0.295001689,0.31782253
1.22,0.275636357,0.297556671,0.321220224
1.23,0.278224165,0.300330674,0.324193672
1.24,0.280512359,0.303066188,0.327433395
1.25,0.282890629,0.305918406,0.330820684
1.26,0.285545212,0.308547546,0.333402853
1.27,0.287391463,0.311087448,0.336737213
1.28,0.290022212,0.31389402,0.339730722
1.29,0.292795995,0.317120915,0.343466701
1.3,0.295173132,0.319651162,0.346159098
1.31,0.297110722,0.322257761,0.34953321
1.32,0.29930932,0.324726959,0.352303088
1.33,0.301885961,0.327478831,0.355241378
1.34,0.304636806,0.330712172,0.359019456
1.35,0.306299127,0.332804138,0.361602709
1.36,0.30933016,0.336015253,0.365002398
1.37,0.311051459,0.33872439,0.368859265
1.38,0.313742172,0.341070262,0.370778727
1.39,0.316017595,0.344015145,0.374493134
1.4,0.318375291,0.346659864,0.377457248
1.41,0.32080746,0.349295032,0.380312289
1.42,0.323127701,0.351954992,0.383354061
1.43,0.325574566,0.354502612,0.386000982
1.44,0.327561896,0.357380788,0.389914178
1.45,0.329565927,0.359767129,0.392735948
1.46,0.3324315,0.362790171,0.395921289
1.47,0.335559612,0.365500972,0.398113944
1.48,0.336970631,0.367599286,0.401011907
1.49,0.338851935,0.370355086,0.404787094
1.5,0.341625176,0.372905681,0.407050349
1.51,0.343826967,0.375594982,0.410298214
1.52,0.345630945,0.377859132,0.413092421
1.53,0.347787302,0.380467991,0.416219602
1.54,0.349513396,0.38245083,0.418492221
1.55,0.351682536,0.385020332,0.42151839
1.56,0.354128987,0.387522083,0.424064027
1.57,0.35689406,0.390572401,0.427428803
1.58,0.358816109,0.392574071,0.429508034
1.59,0.360981789,0.395270348,0.432815873
1.6,0.36335119,0.397817645,0.435553489
1.61,0.365284689,0.399962945,0.437933377
1.62,0.367251337,0.402396016,0.440903918
1.63,0.369632511,0.404618507,0.442915955
1.64,0.37091714,0.40633575,0.445136459
1.65,0.373534696,0.409267038,0.448417537
1.66,0.375290251,0.410992308,0.450090768
1.67,0.377387287,0.413475785,0.453015325
1.68,0.379371405,0.415640067,0.455376086
1.69,0.382181014,0.418259285,0.45774338
1.7,0.383721536,0.420157971,0.460054242
1.71,0.384956808,0.422466879,0.46363192
1.72,0.38779517,0.424933998,0.465629582
1.73,0.389958725,0.427131342,0.467847419
1.74,0.392634663,0.429481203,0.469785581
1.75,0.393744191,0.431404,0.472665795
1.76,0.395473256,0.433399321,0.474962514
1.77,0.397320288,0.435267282,0.476838492
1.78,0.399442313,0.437478485,0.479136583
1.79,0.40107408,0.439986522,0.482674273
1.8,0.403121809,0.441180472,0.482832248
1.81,0.404424198,0.443394361,0.486119674
1.82,0.407005862,0.445676024,0.488020288
1.83,0.408362311,0.447264436,0.489872523
1.84,0.410283194,0.449177484,0.4917589
1.85,0.412471725,0.451674245,0.494602686
1.86,0.413577091,0.453016144,0.496216137
1.87,0.415893734,0.455155488,0.498123683
1.88,0.418015913,0.457224688,0.500111141
1.89,0.418593475,0.45852072,0.502256397
1.9,0.421309202,0.460678806,0.503727336
1.91,0.42244442,0.462073409,0.505419945
1.92,0.424044002,0.463983293,0.507684332
1.93,0.426009834,0.465681506,0.509047557
1.94,0.428217435,0.468089447,0.511674007
1.95,0.429337895,0.469496758,0.513411949
1.96,0.431011271,0.471190554,0.515115387
1.97,0.432693056,0.472593302,0.5161729
1.98,0.434417439,0.474739866,0.518805003
1.99,0.436176409,0.476270012,0.520049044
2,0.437436335,0.477892303,0.52208981
2.01,0.438845131,0.47889726,0.522604831
2.02,0.440795723,0.481198372,0.525304265
2.03,0.44170197,0.482390457,0.526827066
2.04,0.444466484,0.484559525,0.528269152
2.05,0.445501323,0.485840584,0.529832485
2.06,0.446752275,0.487394037,0.531733044
2.07,0.448069104,0.488686386,0.532985608
2.08,0.450364534,0.490707067,0.534663383
2.09,0.45102197,0.491654863,0.535948402
2.1,0.452960036,0.493465156,0.537592371
2.11,0.454348199,0.494902292,0.539076151
2.12,0.455890523,0.496541018,0.540816205
2.13,0.45743097,0.49831984,0.542863687
2.14,0.4590732,0.499464716,0.543410076
2.15,0.459554145,0.500211769,0.544466449
2.16,0.461290355,0.501961152,0.546217789
2.17,0.46278092,0.50339167,0.547566164
2.18,0.464213743,0.504895519,0.549142477
2.19,0.465273249,0.506028587,0.550353864
2.2,0.467258507,0.507672449,0.551581857
2.21,0.468181789,0.508802517,0.55294761
2.22,0.469676033,0.509990681,0.553765737
2.23,0.470916192,0.511444706,0.555461229
2.24,0.472291227,0.51260624,0.556362562
2.25,0.473627494,0.513867332,0.557525984
2.26,0.474920408,0.514881353,0.558204708
2.27,0.477396685,0.516702414,0.559244321
2.28,0.47803877,0.517889851,0.561063066
2.29,0.478882504,0.518753036,0.561943088
2.3,0.479243807,0.519575173,0.563300675
2.31,0.48156774,0.521292204,0.564293535
2.32,0.482136004,0.522041302,0.56524947
2.33,0.484117318,0.523460553,0.566001132
2.34,0.484219325,0.524138407,0.567348421
2.35,0.486147562,0.525924057,0.568955055
2.36,0.486844593,0.526522575,0.569434324
2.37,0.48925072,0.5287212,0.571375975
2.38,0.489133802,0.52875359,0.571582576
2.39,0.489959506,0.529928024,0.57315698
2.4,0.49152193,0.531009437,0.573669261
2.41,0.492860764,0.532386533,0.575082135
2.42,0.494198814,0.533391772,0.575692967
2.43,0.495636805,0.534507388,0.576426417
2.44,0.495846212,0.535029323,0.57730879
2.45,0.497679383,0.536494049,0.578335922
2.46,0.498404773,0.537286035,0.579200479
2.47,0.499488069,0.538199445,0.579911035
2.48,0.500536974,0.538884166,0.580169218
2.49,0.501896644,0.540520787,0.582117304
2.5,0.502452513,0.540591041,0.581624465
2.51,0.503536166,0.541754252,0.582873067
2.52,0.504086703,0.542596995,0.584049326
2.53,0.505463849,0.543547541,0.584500612
2.54,0.506004999,0.544290053,0.585471809
2.55,0.507579807,0.545672175,0.586623263
2.56,0.508371291,0.546573469,0.587646397
2.57,0.50958091,0.547721262,0.588716286
2.58,0.510230946,0.548069318,0.588713757
2.59,0.511114056,0.548996575,0.589686853
2.6,0.512893192,0.550503222,0.590871163
2.61,0.513602196,0.551037947,0.591202337
2.62,0.514113603,0.551330243,0.591240994
2.63,0.5149172,0.552346447,0.59249642
2.64,0.51502222,0.552839059,0.593432698
2.65,0.51708325,0.554586842,0.594810538
2.66,0.518310892,0.555079416,0.594456267
2.67,0.51875595,0.555933408,0.595775246
2.68,0.519902944,0.55676236,0.596234988
2.69,0.520804065,0.557702018,0.597214118
2.7,0.521816865,0.558114908,0.596937874
2.71,0.522102005,0.558656347,0.597769998
2.72,0.523720862,0.559751526,0.598261009
2.73,0.524132001,0.560213356,0.598778559
2.74,0.524860735,0.560774147,0.59914492
2.75,0.525830951,0.561596325,0.599794348
2.76,0.526851725,0.56245589,0.600466154
2.77,0.527214239,0.563046701,0.60131454
2.78,0.528066066,0.563913818,0.602195094
2.79,0.528809486,0.564585529,0.602781962
2.8,0.530117217,0.565292147,0.602801044
2.81,0.530159527,0.565622712,0.603458084
2.82,0.532112769,0.566760135,0.603663489
2.83,0.532202092,0.567353292,0.604826179
2.84,0.532454983,0.567595643,0.605055497
2.85,0.533731665,0.568495778,0.605524219
2.86,0.534215851,0.569069256,0.606196573
2.87,0.535224412,0.569794886,0.606598288
2.88,0.53588017,0.570587748,0.607543248
2.89,0.536186409,0.570752045,0.607545979
2.9,0.536668791,0.571250977,0.608061591
2.91,0.538302022,0.572506601,0.608884593
2.92,0.53859304,0.572655232,0.608871617
2.93,0.539604725,0.573465854,0.609451827
2.94,0.539808629,0.573979973,0.610314456
2.95,0.540798058,0.574499829,0.610301845
2.96,0.541982026,0.575421335,0.610923788
2.97,0.54215449,0.575625111,0.611162084
2.98,0.542533864,0.576033387,0.611601385
2.99,0.543994504,0.577111824,0.612245263
3,0.544494041,0.577807641,0.613159456
3.01,0.545228126,0.578218765,0.6132056
3.02,0.545218487,0.578446645,0.613699882
3.03,0.546199529,0.579211957,0.614219664
3.04,0.546943012,0.579730374,0.614483225
3.05,0.547685366,0.58013116,0.614499096
3.06,0.548302576,0.580821952,0.615270026
3.07,0.548291513,0.580889665,0.615425909
3.08,0.549536852,0.582085622,0.616562238
3.09,0.54943279,0.58176982,0.616010056
3.1,0.550810944,0.582942066,0.616947532
3.11,0.551206492,0.583255803,0.617168586
3.12,0.551192437,0.583407015,0.617504381
3.13,0.551696381,0.583580036,0.617306311
3.14,0.553567965,0.5848517,0.617903371
3.15,0.553156024,0.584820267,0.618297062
3.16,0.554479901,0.585803102,0.618895787
3.17,0.554590131,0.586211047,0.619634884
3.18,0.555762688,0.586885206,0.619750576
3.19,0.555906651,0.587085768,0.620013626
3.2,0.556441603,0.587651438,0.620611778
3.21,0.556868496,0.58792751,0.620718822
3.22,0.557480201,0.588362902,0.62095641
3.23,0.557544541,0.588342097,0.620840844
3.24,0.559066053,0.589467919,0.621523031
3.25,0.559492845,0.589967347,0.622101737
3.26,0.559223582,0.589988554,0.622446021
3.27,0.560739417,0.5907479,0.622362315
3.28,0.561167164,0.591179646,0.622797264
3.29,0.561002339,0.591246983,0.623122169
3.3,0.561688819,0.591641983,0.623192459
3.31,0.562773311,0.592280455,0.623334708
3.32,0.56219718,0.59230626,0.624027865
3.33,0.563436329,0.59292069,0.623947955
3.34,0.563804319,0.593265565,0.624266291
3.35,0.563787813,0.593352439,0.624467412
3.36,0.565237829,0.594555637,0.625394104
3.37,0.565567647,0.594681447,0.625293942
3.38,0.565191639,0.594562752,0.625460184
3.39,0.565912767,0.594971414,0.625522172
3.4,0.566508114,0.595454017,0.625878919
3.41,0.566900543,0.595922067,0.6264293
3.42,0.567637564,0.596209756,0.626220137
3.43,0.568423724,0.596925538,0.626856486
3.44,0.567455403,0.596800217,0.627662538
3.45,0.568018419,0.596812073,0.627065317
3.46,0.569318228,0.597604414,0.627295979
3.47,0.569633733,0.59812493,0.628041162
3.48,0.569799106,0.59815086,0.627913325
3.49,0.570887886,0.598978021,0.62845031
3.5,0.571604964,0.599170412,0.628065193
3.51,0.571470548,0.599377959,0.62864821
3.52,0.57168723,0.599890542,0.629485222
3.53,0.572710798,0.600198294,0.629005063
3.54,0.573114748,0.600424878,0.629036394
3.55,0.573218755,0.600847389,0.629807697
3.56,0.573470564,0.601128573,0.630120504
3.57,0.574395471,0.601745864,0.630398571
3.58,0.574573996,0.601882914,0.630489798
3.59,0.574889115,0.602079623,0.630556159
3.6,0.575576029,0.602303625,0.63027235
3.61,0.57569991,0.602735472,0.631040656
3.62,0.575875321,0.602664582,0.630700058
3.63,0.576537794,0.603680906,0.632101902
3.64,0.577180505,0.603681355,0.631398975
3.65,0.577430615,0.603740104,0.631248333
3.66,0.577444471,0.604227784,0.632253373
3.67,0.578767814,0.604684101,0.631760877
3.68,0.578338893,0.604833456,0.632541774
3.69,0.579365077,0.605303268,0.632402712
3.7,0.579609588,0.605558372,0.632668868
3.71,0.579642755,0.605806833,0.633151912
3.72,0.579359736,0.60526399,0.632326473
3.73,0.579961602,0.606238499,0.63370595
3.74,0.580420663,0.606418074,0.633579926
3.75,0.580963899,0.606744329,0.633668773
3.76,0.581409221,0.606913979,0.633537558
3.77,0.581954332,0.607348997,0.633851805
3.78,0.582050658,0.60738801,0.633828326
3.79,0.582435058,0.607820795,0.634312982
3.8,0.582446694,0.60798942,0.634652303
3.81,0.583454064,0.608443196,0.634502605
3.82,0.583042298,0.608230614,0.634507104
3.83,0.583623457,0.608868418,0.635205365
3.84,0.58381622,0.608967967,0.635203292
3.85,0.584495206,0.609333603,0.635227518
3.86,0.5844204,0.609231666,0.635096282
3.87,0.584914915,0.609819456,0.635784383
3.88,0.585299196,0.609682265,0.635081112
3.89,0.585954125,0.610211844,0.635473801
3.9,0.585760857,0.610460629,0.636201916
3.91,0.586665967,0.610958499,0.636256931
3.92,0.586949147,0.610971928,0.635977918
3.93,0.586975458,0.611233803,0.636494689
3.94,0.587513408,0.611573279,0.636618451
3.95,0.588098167,0.611675271,0.636197592
3.96,0.587537955,0.611585722,0.636617758
3.97,0.588751006,0.612187753,0.636557459
3.98,0.58828755,0.612260166,0.637209663
3.99,0.588714828,0.612551669,0.637353656
4,0.58925819,0.612654691,0.63698015
4.01,0.589317632,0.612715288,0.6370419
4.02,0.589819712,0.613181593,0.637468803
4.03,0.589444931,0.613080806,0.637664446
4.04,0.590601075,0.613630238,0.637557371
4.05,0.590737242,0.613676775,0.637507096
4.06,0.590760651,0.613826491,0.637792921
4.07,0.590836819,0.613966106,0.638000827
4.08,0.591345513,0.614130162,0.637792709
4.09,0.591233177,0.614221392,0.63810343
4.1,0.591859484,0.615023028,0.639093122
4.11,0.59222842,0.614978403,0.638602309
4.12,0.593150963,0.615370558,0.638422504
4.13,0.593363611,0.615302345,0.63805223
4.14,0.593243797,0.615692058,0.638989757
4.15,0.59333111,0.615734156,0.638983098
4.16,0.593912653,0.616085066,0.639085238
4.17,0.594143954,0.6163212,0.639326241
4.18,0.594410799,0.616271741,0.638936673
4.19,0.594680293,0.616560119,0.63924496
4.2,0.594754122,0.616826063,0.639717116
4.21,0.595040208,0.616846352,0.639451614
4.22,0.594997364,0.616969808,0.639753665
4.23,0.595758294,0.617415641,0.639860289
4.24,0.59550151,0.617318347,0.639934468
4.25,0.595622518,0.617300498,0.63976746
4.26,0.595888832,0.617852065,0.640624818
4.27,0.596271137,0.617720147,0.639940719
4.28,0.597321884,0.618595017,0.640625776
4.29,0.596890493,0.618123981,0.640112819
4.3,0.596981825,0.618435217,0.640659567
4.31,0.596677697,0.618270557,0.640644831
4.32,0.597156452,0.618538914,0.64068702
4.33,0.597449281,0.618526998,0.640348326
4.34,0.597890655,0.618923163,0.64069555
4.35,0.598177121,0.618982461,0.640511438
4.36,0.598468836,0.619391839,0.64104633
4.37,0.598609622,0.619529261,0.64117998
4.38,0.598887551,0.619567317,0.640961162
4.39,0.599635346,0.619870387,0.640788271
4.4,0.599308482,0.620020161,0.64144762
4.41,0.599523056,0.620272407,0.641739888
4.42,0.599461329,0.620098655,0.64144645
4.43,0.599900567,0.620396529,0.641592748
4.44,0.600444241,0.620669663,0.641576361
4.45,0.600656526,0.62093508,0.641898252
4.46,0.600651325,0.620962637,0.641960786
4.47,0.600779731,0.620891612,0.641676764
4.48,0.600965937,0.621145906,0.642003504
4.49,0.601307142,0.621271411,0.641898522
4.5,0.601219427,0.62156975,0.642608899
4.51,0.601695624,0.62175349,0.642479998
4.52,0.601337414,0.621431099,0.642196215
4.53,0.602676466,0.622228946,0.642415763
4.54,0.602354904,0.622017288,0.642321503
4.55,0.602254428,0.622106059,0.642612043
4.56,0.602583786,0.622531248,0.643139036
4.57,0.602960267,0.622260535,0.64217859
4.58,0.603812425,0.62280651,0.642398091
4.59,0.60348262,0.622869751,0.642879701
4.6,0.603145414,0.6227513,0.642994497
4.61,0.60365228,0.623133182,0.643242767
4.62,0.603524843,0.623001842,0.643107405
4.63,0.604432794,0.623383042,0.642927421
4.64,0.604627824,0.623674998,0.643322202
4.65,0.604321108,0.623531826,0.643353233
4.66,0.604560304,0.623539523,0.643114564
4.67,0.604773506,0.623868273,0.643565927
4.68,0.604885543,0.623858882,0.643427355
4.69,0.605111534,0.623842838,0.643153971
4.7,0.605293704,0.62417982,0.643655212
4.71,0.605827207,0.624520756,0.643791117
4.72,0.605799503,0.624299296,0.643364034
4.73,0.606370345,0.62476849,0.64372486
4.74,0.605741027,0.624428066,0.643691598
4.75,0.605892661,0.624527326,0.643735114
4.76,0.606174158,0.624861461,0.644124861
4.77,0.60657881,0.625087413,0.644160771
