flow depth [m],16th percentile vulnerability,median vulnerability,84th percentile vulnerability
0.000001,0.003560013,0.00367773,0.003799339
0.01,0.003566325,0.003680783,0.003798913
0.02,0.003564995,0.003680878,0.003800529
0.03,0.003565147,0.003685582,0.003810085
0.04,0.003555008,0.00369417,0.00383878
0.05,0.003534833,0.003711658,0.003897328
0.06,0.003506031,0.003753337,0.004018087
0.07,0.003459776,0.003802862,0.00417997
0.08,0.00342191,0.003888912,0.004419649
0.09,0.003395434,0.003995814,0.004702354
0.1,0.003387246,0.004153105,0.005092125
0.11,0.003393236,0.004348343,0.005572287
0.12,0.0034345,0.004605092,0.006174661
0.13,0.003502589,0.004922495,0.006918012
0.14,0.003638303,0.005332006,0.007814162
0.15,0.003815876,0.005837566,0.008930369
0.16,0.004053343,0.006444972,0.010247755
0.17,0.004383635,0.007208391,0.011853384
0.18,0.004790754,0.00812425,0.013777255
0.19,0.005332476,0.009210894,0.015910161
0.2,0.006009037,0.010537981,0.018480341
0.21,0.006857938,0.012103125,0.021360012
0.22,0.007909971,0.013944752,0.024583669
0.23,0.009183996,0.016101162,0.028228172
0.24,0.0106985,0.018557757,0.032190526
0.25,0.012498965,0.021332556,0.03640925
0.26,0.01465371,0.024495988,0.04094891
0.27,0.0170904,0.027981776,0.045814013
0.28,0.019959024,0.031811409,0.050702165
0.29,0.023096949,0.035965067,0.056002464
0.3,0.026647413,0.040406523,0.061270002
0.31,0.030622157,0.045203896,0.066729205
0.32,0.034815738,0.050086701,0.072055852
0.33,0.039244573,0.055127773,0.077439279
0.34,0.043986436,0.06029874,0.082660438
0.35,0.049016871,0.06565647,0.087944661
0.36,0.053953183,0.070878531,0.093113435
0.37,0.059106877,0.076132471,0.098062245
0.38,0.063996701,0.081179655,0.102976187
0.39,0.069453262,0.086396612,0.107473346
0.4,0.074386053,0.091308907,0.112081715
0.41,0.079210813,0.095975475,0.116288313
0.42,0.083973625,0.100608868,0.120539566
0.43,0.088576964,0.104912924,0.124261673
0.44,0.093276974,0.109262311,0.127987134
0.45,0.09729322,0.112935641,0.131092988
0.46,0.101575573,0.116947884,0.134646619
0.47,0.105676055,0.120635219,0.137711956
0.48,0.109574787,0.124180531,0.140733143
0.49,0.11299781,0.127554846,0.143987205
0.5,0.116576067,0.130546576,0.146191314
0.51,0.119840276,0.133673718,0.149103987
0.52,0.122868236,0.136367701,0.151350346
0.53,0.126194115,0.139353592,0.153885334
0.54,0.12910458,0.141989774,0.156160965
0.55,0.131603254,0.144687529,0.159072671
0.56,0.134463206,0.147018246,0.160745569
0.57,0.136927907,0.149493394,0.16321198
0.58,0.139641998,0.151799394,0.165015226
0.59,0.142007399,0.154224965,0.167493665
0.6,0.144338031,0.156270029,0.16918841
0.61,0.146584463,0.158629391,0.171664057
0.62,0.148783882,0.160741257,0.173659615
0.63,0.150896275,0.162801058,0.175645054
0.64,0.153112287,0.16490801,0.177612471
0.65,0.155278306,0.167239563,0.180122209
0.66,0.157341877,0.169253092,0.18206602
0.67,0.159268525,0.171148201,0.18391397
0.68,0.161277047,0.173119458,0.185831445
0.69,0.163090505,0.175014384,0.187810041
0.7,0.165489392,0.177346329,0.190052788
0.71,0.167372956,0.179359514,0.1922045
0.72,0.16943873,0.18145049,0.194313782
0.73,0.171203745,0.1833598,0.196378977
0.74,0.17328799,0.185323021,0.198193898
0.75,0.175157437,0.187341448,0.200372984
0.76,0.177598356,0.18969074,0.202606474
0.77,0.179513932,0.191805714,0.204939145
0.78,0.181001165,0.193609477,0.207096069
0.79,0.183383534,0.196068652,0.209631233
0.8,0.18499936,0.197735553,0.211348564
0.81,0.187075893,0.199825779,0.213444615
0.82,0.189350165,0.202209521,0.215942196
0.83,0.191288292,0.204202536,0.217988646
0.84,0.193298592,0.206480379,0.220561084
0.85,0.195038328,0.208546219,0.222989634
0.86,0.197847508,0.211185128,0.225421885
0.87,0.199939787,0.213511889,0.228005279
0.88,0.20186125,0.21537842,0.229800736
0.89,0.20402733,0.217784516,0.232469325
0.9,0.206278593,0.219872451,0.23436215
0.91,0.208513927,0.222467674,0.237355205
0.92,0.210481921,0.224508777,0.239470405
0.93,0.212430337,0.226577809,0.241667476
0.94,0.214817601,0.229129862,0.244395681
0.95,0.216984548,0.231601457,0.247203016
0.96,0.219060615,0.233928608,0.249805715
0.97,0.220982429,0.236080859,0.252210875
0.98,0.223574815,0.238662944,0.254769308
0.99,0.226034549,0.241257072,0.257504771
1,0.22802203,0.243592914,0.260227083
1.01,0.230467738,0.246018308,0.262618137
1.02,0.232583055,0.248389369,0.265269878
1.03,0.234882679,0.250766082,0.267723563
1.04,0.237021758,0.253097242,0.27026301
1.05,0.239431247,0.255607589,0.272876829
1.06,0.240932482,0.257841059,0.275936276
1.07,0.243878174,0.260792711,0.278880381
1.08,0.245638625,0.262660139,0.280861158
1.09,0.248345551,0.265583021,0.284016931
1.1,0.250809963,0.268420978,0.287268577
1.11,0.252904819,0.270807299,0.28997705
1.12,0.255575002,0.273182595,0.292003246
1.13,0.2569812,0.275686315,0.295752935
1.14,0.25969243,0.278288246,0.298215654
1.15,0.261857008,0.280762196,0.301032276
1.16,0.264099344,0.283224555,0.303734751
1.17,0.266541958,0.285754159,0.306351166
1.18,0.268302193,0.288279347,0.309743953
1.19,0.270725877,0.290805715,0.312374882
1.2,0.273322438,0.293678858,0.315551376
1.21,0.275383968,0.295846249,0.317828971
1.22,0.277547425,0.29861313,0.321277711
1.23,0.279757754,0.301279369,0.32445663
1.24,0.28228209,0.304076146,0.327552847
1.25,0.284273737,0.306390131,0.330227174
1.26,0.286949225,0.309097041,0.332954307
1.27,0.289223357,0.31170923,0.335943282
1.28,0.291491333,0.314071011,0.33839977
1.29,0.293415134,0.316831704,0.342117079
1.3,0.29549623,0.319034093,0.344446874
1.31,0.297689397,0.321484823,0.347182307
1.32,0.299956375,0.324424773,0.350889136
1.33,0.301934199,0.326546581,0.353165258
1.34,0.304905568,0.329484941,0.356045733
1.35,0.306642665,0.331950776,0.359347638
1.36,0.308596511,0.334514183,0.362608566
1.37,0.311110849,0.337015905,0.365077981
1.38,0.313297969,0.339530294,0.367959043
1.39,0.315096767,0.341515827,0.370149974
1.4,0.317484151,0.34451395,0.373844999
1.41,0.319448391,0.346652428,0.376173145
1.42,0.321184148,0.349037356,0.379306004
1.43,0.323375918,0.351354118,0.381752966
1.44,0.326155608,0.354231848,0.384724956
1.45,0.328403114,0.356913691,0.387899436
1.46,0.330085121,0.359137441,0.39074679
1.47,0.332573933,0.361572505,0.39309959
1.48,0.334291326,0.363692522,0.395679578
1.49,0.336673163,0.366269629,0.398467878
1.5,0.33886762,0.368942318,0.401686164
1.51,0.340420774,0.370965655,0.404251232
1.52,0.342970275,0.373437546,0.406611334
1.53,0.344816027,0.375877511,0.409737055
1.54,0.34673334,0.377995447,0.412076203
1.55,0.34814327,0.38010058,0.414991365
1.56,0.350831774,0.382763451,0.417601456
1.57,0.353115424,0.385043154,0.419857703
1.58,0.355198855,0.38771397,0.423205537
1.59,0.357301367,0.390229159,0.426191474
1.6,0.35882471,0.392223208,0.428730355
1.61,0.361567368,0.394885063,0.431272916
1.62,0.363133835,0.396669671,0.43330258
1.63,0.365207983,0.399012039,0.435945036
1.64,0.36750376,0.40143293,0.438494554
1.65,0.368888903,0.403295354,0.440910912
1.66,0.370300916,0.405137588,0.443251577
1.67,0.373191968,0.407672073,0.445337878
1.68,0.375160935,0.410337315,0.448811954
1.69,0.376332548,0.412141208,0.451357121
1.7,0.378665492,0.414418434,0.453547106
1.71,0.379849086,0.415962881,0.455510162
1.72,0.382915837,0.418987902,0.458458086
1.73,0.384300471,0.420691324,0.460528164
1.74,0.385926185,0.422579431,0.462713811
1.75,0.387672409,0.424567215,0.464973302
1.76,0.390392435,0.426968374,0.46697112
1.77,0.39178287,0.428876896,0.469482986
1.78,0.394046838,0.43128705,0.472046726
1.79,0.396015596,0.433327407,0.474154664
1.8,0.397733236,0.435306974,0.476430291
1.81,0.398821424,0.437145343,0.479151919
1.82,0.400540474,0.439257735,0.481717506
1.83,0.402592058,0.440783968,0.482598954
1.84,0.404871523,0.443076334,0.484886257
1.85,0.406017568,0.444991538,0.487706654
1.86,0.407862264,0.446831373,0.489523777
1.87,0.409630698,0.448778383,0.491667344
1.88,0.411768628,0.450959996,0.493881524
1.89,0.413412336,0.452885966,0.496128636
1.9,0.414744676,0.454205017,0.497419761
1.91,0.41723972,0.456337732,0.499099476
1.92,0.418676939,0.458018552,0.50105696
1.93,0.420129979,0.459810599,0.503238991
1.94,0.421273249,0.461773581,0.506167529
1.95,0.42372626,0.463401692,0.506792116
1.96,0.425109138,0.465272788,0.509231037
1.97,0.427572204,0.467339722,0.510805927
1.98,0.428345483,0.468478373,0.512371427
1.99,0.429859218,0.470268058,0.514475523
2,0.431357411,0.472048385,0.516577835
2.01,0.432829563,0.473841845,0.518740201
2.02,0.434299677,0.47529956,0.52017002
2.03,0.436163357,0.477013914,0.521690486
2.04,0.437571957,0.478518483,0.523296649
2.05,0.43923534,0.480239753,0.525072095
2.06,0.441307623,0.482035584,0.5265223
2.07,0.442034239,0.483598457,0.529070934
2.08,0.4437703,0.484971792,0.529998603
2.09,0.445554027,0.48695141,0.532195112
2.1,0.446961829,0.487978145,0.532758402
2.11,0.448626299,0.490181514,0.535585892
2.12,0.450021338,0.491438084,0.536666531
2.13,0.45097507,0.492420251,0.537674297
2.14,0.452982455,0.494607233,0.540056933
2.15,0.454665172,0.496193716,0.541515426
2.16,0.45646528,0.497792471,0.54286132
2.17,0.457416026,0.498722545,0.54375921
2.18,0.45823753,0.499896783,0.545343358
2.19,0.4599161,0.501718165,0.547319647
2.2,0.461286984,0.502912633,0.548294501
2.21,0.463471657,0.504865797,0.549956982
2.22,0.464099102,0.505942031,0.551557495
2.23,0.465791158,0.507241307,0.552380051
2.24,0.467149153,0.508519251,0.553553028
2.25,0.468736384,0.51022919,0.555394963
2.26,0.469696678,0.51154196,0.557115239
2.27,0.471196107,0.512606368,0.557655899
2.28,0.472993332,0.514612591,0.55989398
2.29,0.473612715,0.515036041,0.560082352
2.3,0.474645485,0.516048882,0.561063903
2.31,0.47672341,0.518355991,0.563624373
2.32,0.478196352,0.519544343,0.564467553
2.33,0.479452848,0.52047533,0.565007739
2.34,0.480601004,0.522096639,0.567175053
2.35,0.481393019,0.522837142,0.567849274
2.36,0.483364478,0.524503566,0.569143997
2.37,0.484051175,0.525384489,0.570247271
2.38,0.485923488,0.52708759,0.571738832
2.39,0.487125401,0.528211032,0.57276195
2.4,0.487674452,0.529087409,0.574017125
2.41,0.488856039,0.530111874,0.574849396
2.42,0.489869048,0.531078642,0.57575494
2.43,0.490956592,0.532137586,0.576772806
2.44,0.493293377,0.533819038,0.577674013
2.45,0.493667756,0.534756243,0.579264568
2.46,0.495367632,0.536077651,0.580133278
2.47,0.496614006,0.537009627,0.580691112
2.48,0.497194384,0.538085418,0.582339475
2.49,0.498018906,0.538491926,0.582254109
2.5,0.499782319,0.540124415,0.583722898
2.51,0.500636995,0.541006236,0.58463068
2.52,0.500954518,0.541765756,0.585901761
2.53,0.503476955,0.543832875,0.587423502
2.54,0.503390092,0.54404941,0.587992822
2.55,0.504693682,0.545062369,0.588660007
2.56,0.505755687,0.546118632,0.589702831
2.57,0.50697706,0.547105814,0.590410878
2.58,0.507482668,0.547595919,0.590879865
2.59,0.508980344,0.54900846,0.592184536
2.6,0.509828207,0.549898561,0.593118277
2.61,0.510856617,0.550704012,0.59365955
2.62,0.512385854,0.551978112,0.594629679
2.63,0.513325943,0.552989813,0.595718447
2.64,0.513796284,0.553602064,0.596491751
2.65,0.515159959,0.554478523,0.596797998
2.66,0.515958721,0.555243237,0.597518832
2.67,0.517691447,0.556774619,0.598808379
2.68,0.518378917,0.557466788,0.599502042
2.69,0.518882485,0.558035207,0.600142231
2.7,0.520078362,0.558652407,0.600087476
2.71,0.521093201,0.559674535,0.601112401
2.72,0.522041324,0.560661778,0.60213936
2.73,0.523172748,0.561362418,0.602339792
2.74,0.52340072,0.562237811,0.603956671
2.75,0.525178527,0.563161719,0.60389202
2.76,0.525879384,0.563915228,0.60470213
2.77,0.526332596,0.564654632,0.605766879
2.78,0.527633692,0.565542985,0.606175976
2.79,0.528459724,0.566295211,0.606839558
2.8,0.529275452,0.567230162,0.60790663
2.81,0.529471656,0.567396437,0.60803768
2.82,0.531012817,0.568692623,0.609046128
2.83,0.531558747,0.568908313,0.608882217
2.84,0.532312645,0.569960698,0.610271427
2.85,0.53337573,0.570695542,0.610626587
2.86,0.534792668,0.571761207,0.611285265
2.87,0.535109563,0.572229635,0.611924693
2.88,0.535656234,0.572934075,0.612806187
2.89,0.537241058,0.573892513,0.613044391
2.9,0.537726631,0.574515906,0.613822168
2.91,0.53805079,0.574975247,0.614433694
2.92,0.539602322,0.576112066,0.615092078
2.93,0.539963899,0.576495036,0.615497678
2.94,0.540628504,0.576927531,0.615663758
2.95,0.541168251,0.577698856,0.616695395
2.96,0.542979719,0.578627988,0.616616674
2.97,0.543423795,0.579145762,0.617215914
2.98,0.543758014,0.579715752,0.618051311
2.99,0.544105881,0.580157654,0.618598173
3,0.544881173,0.58063829,0.61874192
3.01,0.546481786,0.58156494,0.61890037
3.02,0.546607531,0.582288441,0.620298494
3.03,0.547689106,0.582714827,0.619980506
3.04,0.54866467,0.583819505,0.621226831
3.05,0.549214228,0.583932198,0.620844827
3.06,0.549478555,0.584270708,0.621265848
3.07,0.550614231,0.585154425,0.621861334
3.08,0.551089052,0.585489551,0.622037425
3.09,0.551781581,0.586350922,0.623086046
3.1,0.552374278,0.58645162,0.622631279
3.11,0.554153476,0.587978831,0.623868875
3.12,0.554078946,0.588188949,0.624398819
3.13,0.554372664,0.588340251,0.624389105
3.14,0.555237671,0.588995683,0.624806156
3.15,0.556015407,0.589689618,0.625403254
3.16,0.55635146,0.589773794,0.625203946
3.17,0.557189636,0.590355311,0.625495111
3.18,0.557725522,0.590870697,0.625985664
3.19,0.558791401,0.591762257,0.626678521
3.2,0.559077435,0.592063264,0.626995271
3.21,0.559939692,0.592795308,0.627578796
3.22,0.560244538,0.593115458,0.627914997
3.23,0.560920219,0.593682611,0.628358598
3.24,0.561733283,0.594145986,0.628428942
3.25,0.561195063,0.594158066,0.629057223
3.26,0.562469486,0.595023858,0.629462397
3.27,0.564211481,0.596016488,0.629614366
3.28,0.563772987,0.596101684,0.63028422
3.29,0.564726478,0.596540031,0.630145782
3.3,0.56548098,0.597194618,0.63068684
3.31,0.56536986,0.597322832,0.631081688
3.32,0.565613329,0.597238195,0.630631285
3.33,0.567092427,0.598509244,0.631666546
3.34,0.567246899,0.598439245,0.631346827
3.35,0.568100189,0.599299105,0.632211402
3.36,0.569055239,0.599975324,0.632575476
3.37,0.568804068,0.600130904,0.633183062
3.38,0.569638426,0.600592597,0.63322882
3.39,0.570335506,0.60102766,0.633371489
3.4,0.571328158,0.601398761,0.633052065
3.41,0.570957288,0.601346822,0.633353855
3.42,0.572086459,0.602276782,0.634060319
3.43,0.572427761,0.602528602,0.63421228
3.44,0.572668976,0.603017997,0.634975387
3.45,0.573785651,0.603520165,0.63479557
3.46,0.573162925,0.603393591,0.635218731
3.47,0.574626461,0.604186414,0.635266991
3.48,0.575235303,0.60470002,0.63567398
3.49,0.575458826,0.604814096,0.635666836
3.5,0.575737228,0.605385196,0.636559905
3.51,0.576457977,0.605680043,0.636383447
3.52,0.577179365,0.605913116,0.636077321
3.53,0.577463255,0.606276354,0.63652711
3.54,0.578353559,0.606931813,0.636922207
3.55,0.578022539,0.606854843,0.637125329
3.56,0.57840794,0.60726021,0.637551695
3.57,0.579283864,0.607711819,0.637534855
3.58,0.580465211,0.608580512,0.6380576
3.59,0.579886241,0.608252927,0.638007246
3.6,0.580762805,0.608838781,0.638272041
3.61,0.581279736,0.609202463,0.638466504
3.62,0.581870844,0.609465974,0.638369799
3.63,0.581948988,0.609781437,0.638945008
3.64,0.582338748,0.610014369,0.639005274
3.65,0.582767555,0.610414869,0.63937381
3.66,0.583121428,0.610595406,0.63936383
3.67,0.583631821,0.610826814,0.639288988
3.68,0.583805045,0.61106135,0.639590179
3.69,0.584165528,0.611373288,0.639848262
3.7,0.584493206,0.611644363,0.64005676
3.71,0.585385251,0.612197935,0.640238734
3.72,0.586347241,0.612780869,0.640406175
3.73,0.586144232,0.612836678,0.640744672
3.74,0.586960346,0.613338209,0.640901487
3.75,0.587034123,0.613058266,0.640236101
3.76,0.587438167,0.613678103,0.641090135
3.77,0.587558599,0.614004993,0.641641757
3.78,0.588111932,0.614203274,0.641452148
3.79,0.587968804,0.614130387,0.641456026
3.8,0.589155934,0.61488696,0.641741773
3.81,0.589376844,0.615149346,0.642048839
3.82,0.589995991,0.615517245,0.642142462
3.83,0.589932742,0.615603607,0.642391537
3.84,0.590317449,0.615917975,0.642628728
3.85,0.591296092,0.616499003,0.642776142
3.86,0.591775919,0.616805378,0.64289347
3.87,0.591943103,0.616890816,0.642889961
3.88,0.592790029,0.617312582,0.642849584
3.89,0.592011342,0.617026328,0.643098303
3.9,0.592700064,0.617387774,0.6431038
3.91,0.592824509,0.617538776,0.643283357
3.92,0.593879358,0.618095156,0.643298368
3.93,0.593373203,0.618310036,0.644294853
3.94,0.594340565,0.618334238,0.643296541
3.95,0.594839918,0.618868254,0.643867204
3.96,0.594035226,0.618565835,0.644109432
3.97,0.594829768,0.619050376,0.644257212
3.98,0.594993134,0.619055347,0.644090664
3.99,0.595423173,0.619388928,0.644319304
4,0.595703532,0.619835117,0.644944258
4.01,0.596194257,0.61995445,0.64466156
4.02,0.596593171,0.620175345,0.644689676
4.03,0.597124506,0.620510698,0.644812803
4.04,0.597631164,0.620755734,0.64477508
4.05,0.597348099,0.620605141,0.644767669
4.06,0.597736447,0.621017181,0.645204658
4.07,0.598009363,0.621325273,0.645550252
4.08,0.598113793,0.621261865,0.64530581
4.09,0.598905845,0.621638291,0.645233584
4.1,0.59907665,0.621883805,0.645559241
4.11,0.5990385,0.621961177,0.645761008
4.12,0.599870497,0.622487799,0.645957856
4.13,0.600413653,0.622784748,0.645989379
4.14,0.600627966,0.622771079,0.645730532
4.15,0.600996931,0.623012286,0.645834094
4.16,0.601133706,0.623423046,0.646538849
4.17,0.60112866,0.623597928,0.646907062
4.18,0.601990218,0.623790659,0.64638058
4.19,0.601348193,0.623681229,0.646843676
4.2,0.602118204,0.623907884,0.646486098
4.21,0.602497233,0.624188298,0.646660284
4.22,0.602563701,0.624238302,0.646692551
4.23,0.602472665,0.624113634,0.646531952
4.24,0.60313424,0.624455172,0.646529804
4.25,0.603765961,0.624999729,0.646980264
4.26,0.603688171,0.624954705,0.64697041
4.27,0.604226072,0.625211431,0.646925633
4.28,0.603950544,0.625262032,0.647325534
4.29,0.603903137,0.62517147,0.647188834
4.3,0.604708167,0.625523338,0.647055005
4.31,0.604891548,0.625916502,0.647672245
4.32,0.605266307,0.625993065,0.64742959
4.33,0.606168052,0.626534458,0.647585148
4.34,0.606124113,0.626490931,0.647542109
4.35,0.606691231,0.626860587,0.647700471
4.36,0.605957516,0.626627058,0.648001649
4.37,0.607097302,0.627253835,0.648079594
4.38,0.606996971,0.62716582,0.648004825
4.39,0.607290618,0.627292214,0.647952579
4.4,0.607078952,0.627383886,0.648367958
4.41,0.607587074,0.62756758,0.648205145
4.42,0.608022826,0.627833752,0.648290167
4.43,0.608102343,0.627937481,0.648419604
4.44,0.608270832,0.628037064,0.648445614
4.45,0.608281889,0.628140523,0.648647484
4.46,0.608927424,0.628323567,0.648337535
4.47,0.608682058,0.628343526,0.648640092
4.48,0.609272088,0.628671992,0.648689611
4.49,0.609313972,0.628620289,0.648538334
4.5,0.60913234,0.628713248,0.648923595
4.51,0.60986841,0.629111307,0.648961366
4.52,0.610276186,0.62927218,0.648859459
4.53,0.610315306,0.62938639,0.649053407
4.54,0.610565074,0.629712423,0.649460233
4.55,0.610687666,0.629313615,0.648507656
4.56,0.610737493,0.62955302,0.648948214
4.57,0.61098923,0.629818625,0.649228303
4.58,0.611326298,0.629978686,0.649200183
4.59,0.611335123,0.629954003,0.649139942
4.6,0.611566477,0.630149175,0.649296516
4.61,0.611300894,0.630028669,0.649330187
4.62,0.611752636,0.630383614,0.649581999
4.63,0.612008254,0.630384415,0.649312339
4.64,0.611901605,0.630234852,0.649117383
4.65,0.6126139,0.630847056,0.649622883
4.66,0.612894043,0.630994374,0.649629254
4.67,0.61326096,0.63124406,0.649754492
4.68,0.613010332,0.63121904,0.649968614
4.69,0.613567915,0.631194074,0.649326584
4.7,0.613687584,0.631554025,0.649940616
4.71,0.614227225,0.631643737,0.649554096
4.72,0.614284276,0.631673601,0.649555187
4.73,0.614419085,0.631880309,0.649837766
4.74,0.614685884,0.631881197,0.649557534
4.75,0.614786671,0.632138608,0.649980291
4.76,0.615202714,0.632079049,0.649418339
4.77,0.614740534,0.632158252,0.650069475
