D1,,,,parameters of the mean fragility,,
flow depth [m],mean-1sigma fragility,mean fragility,mean+1sigma fragility,median,logarithmic standard deviation,epistemic uncertainty
0.000001,0,0.000417457,0.000973116,0.879743811,2.036069426,0.145837099
0.01,0.030436334,0.05263038,0.074824426,,,
0.02,0.048833532,0.076433907,0.104034282,,,
0.03,0.06401712,0.094967002,0.125916883,,,
0.04,0.077365769,0.110688654,0.144011539,,,
0.05,0.089462672,0.12457517,0.159687668,,,
0.06,0.100625096,0.137136199,0.173647302,,,
0.07,0.111050233,0.148678819,0.186307406,,,
0.08,0.120871409,0.159405521,0.197939633,,,
0.09,0.130184192,0.169458431,0.20873267,,,
0.1,0.139060099,0.178941995,0.218823891,,,
0.11,0.147554454,0.187935729,0.228317003,,,
0.12,0.155711193,0.196501882,0.237292571,,,
0.13,0.163565961,0.204690312,0.245814663,,,
0.14,0.171148197,0.212541709,0.253935222,,,
0.15,0.178482582,0.220089816,0.261697051,,,
0.16,0.185590071,0.227362995,0.26913592,,,
0.17,0.192488655,0.234385369,0.276282082,,,
0.18,0.199193933,0.241177665,0.283161397,,,
0.19,0.205719541,0.247757856,0.289796172,,,
0.2,0.212077492,0.254141652,0.296205811,,,
0.21,0.218278443,0.26034288,0.302407318,,,
0.22,0.224331899,0.266373794,0.308415689,,,
0.23,0.230246393,0.272245314,0.314244235,,,
0.24,0.236029615,0.277967222,0.319904828,,,
0.25,0.241688535,0.283548324,0.325408114,,,
0.26,0.247229489,0.288996586,0.330763683,,,
0.27,0.252658264,0.294319236,0.335980208,,,
0.28,0.257980163,0.299522864,0.341065564,,,
0.29,0.263200061,0.304613494,0.346026927,,,
0.3,0.268322453,0.309596655,0.350870856,,,
0.31,0.273351496,0.314477432,0.355603368,,,
0.32,0.278291043,0.31926052,0.360229996,,,
0.33,0.283144676,0.32395026,0.364755843,,,
0.34,0.287915732,0.328550679,0.369185625,,,
0.35,0.292607325,0.33306552,0.373523715,,,
0.36,0.297222371,0.337498271,0.37777417,,,
0.37,0.301763599,0.341852186,0.381940772,,,
0.38,0.306233576,0.346130309,0.386027042,,,
0.39,0.310634712,0.350335493,0.390036274,,,
0.4,0.31496928,0.354470414,0.393971548,,,
0.41,0.319239425,0.35853759,0.397835755,,,
0.42,0.323447173,0.362539389,0.401631606,,,
0.43,0.32759444,0.366478047,0.405361653,,,
0.44,0.331683044,0.370355672,0.4090283,,,
0.45,0.335714707,0.37417426,0.412633813,,,
0.46,0.339691066,0.377935699,0.416180331,,,
0.47,0.343613677,0.381641779,0.419669881,,,
0.48,0.347484022,0.385294199,0.423104376,,,
0.49,0.351303512,0.388894573,0.426485635,,,
0.5,0.355073494,0.392444437,0.429815379,,,
0.51,0.358795254,0.395945251,0.433095247,,,
0.52,0.36247002,0.399398408,0.436326795,,,
0.53,0.366098967,0.402805236,0.439511505,,,
0.54,0.369683222,0.406167004,0.442650787,,,
0.55,0.37322386,0.409484924,0.445745988,,,
0.56,0.376721917,0.412760155,0.448798393,,,
0.57,0.380178383,0.415993806,0.451809228,,,
0.58,0.383594212,0.419186939,0.454779667,,,
0.59,0.386970318,0.422340575,0.457710831,,,
0.6,0.390307582,0.425455689,0.460603796,,,
0.61,0.393606849,0.42853322,0.46345959,,,
0.62,0.396868937,0.431574069,0.466279201,,,
0.63,0.400094629,0.434579103,0.469063576,,,
0.64,0.403284684,0.437549154,0.471813625,,,
0.65,0.406439831,0.440485026,0.474530221,,,
0.66,0.409560776,0.44338749,0.477214203,,,
0.67,0.412648199,0.44625729,0.479866381,,,
0.68,0.415702758,0.449095145,0.482487531,,,
0.69,0.418725089,0.451901746,0.485078402,,,
0.7,0.421715805,0.454677761,0.487639717,,,
0.71,0.424675502,0.457423836,0.490172169,,,
0.72,0.427604755,0.460140593,0.492676431,,,
0.73,0.430504122,0.462828636,0.495153151,,,
0.74,0.433374143,0.465488547,0.497602952,,,
0.75,0.43621534,0.46812089,0.50002644,,,
0.76,0.439028223,0.47072621,0.502424197,,,
0.77,0.441813283,0.473305036,0.504796788,,,
0.78,0.444570998,0.475857879,0.50714476,,,
0.79,0.447301831,0.478385235,0.509468639,,,
0.8,0.450006233,0.480887586,0.511768938,,,
0.81,0.452684643,0.483365397,0.514046152,,,
0.82,0.455337484,0.485819122,0.516300761,,,
0.83,0.45796517,0.4882492,0.518533229,,,
0.84,0.460568104,0.490656056,0.520744008,,,
0.85,0.463146676,0.493040106,0.522933536,,,
0.86,0.465701268,0.495401752,0.525102235,,,
0.87,0.468232249,0.497741384,0.52725052,,,
0.88,0.470739981,0.500059385,0.529378788,,,
0.89,0.473224814,0.502356122,0.53148743,,,
0.9,0.475687092,0.504631957,0.533576822,,,
0.91,0.478127148,0.50688724,0.535647331,,,
0.92,0.480545308,0.509122311,0.537699314,,,
0.93,0.482941888,0.511337503,0.539733117,,,
0.94,0.485317199,0.513533139,0.541749078,,,
0.95,0.487671541,0.515709534,0.543747526,,,
0.96,0.490005211,0.517866995,0.545728779,,,
0.97,0.492318495,0.520005822,0.547693148,,,
0.98,0.494611676,0.522126306,0.549640937,,,
0.99,0.496885026,0.524228733,0.55157244,,,
1,0.499138814,0.52631338,0.553487945,,,
1.01,0.501373303,0.528380518,0.555387732,,,
1.02,0.503588749,0.530430411,0.557272073,,,
1.03,0.505785402,0.532463318,0.559141235,,,
1.04,0.507963506,0.534479492,0.560995477,,,
1.05,0.510123302,0.536479177,0.562835052,,,
1.06,0.512265024,0.538462616,0.564660208,,,
1.07,0.514388901,0.540430042,0.566471184,,,
1.08,0.516495159,0.542381687,0.568268216,,,
1.09,0.518584016,0.544317774,0.570051533,,,
1.1,0.520655688,0.546238524,0.57182136,,,
1.11,0.522710387,0.548144151,0.573577914,,,
1.12,0.524748319,0.550034865,0.575321411,,,
1.13,0.526769687,0.551910872,0.577052057,,,
1.14,0.528774688,0.553772373,0.578770057,,,
1.15,0.530763519,0.555619564,0.58047561,,,
1.16,0.532736369,0.55745264,0.582168911,,,
1.17,0.534693426,0.559271787,0.583850148,,,
1.18,0.536634874,0.561077192,0.58551951,,,
1.19,0.538560894,0.562869035,0.587177176,,,
1.2,0.540471662,0.564647493,0.588823324,,,
1.21,0.542367351,0.56641274,0.590458129,,,
1.22,0.544248133,0.568164946,0.592081759,,,
1.23,0.546114176,0.569904278,0.593694381,,,
1.24,0.547965643,0.5716309,0.595296157,,,
1.25,0.549802697,0.573344971,0.596887246,,,
1.26,0.551625497,0.57504665,0.598467803,,,
1.27,0.553434198,0.576736089,0.600037981,,,
1.28,0.555228955,0.578413441,0.601597927,,,
1.29,0.557009918,0.580078853,0.603147788,,,
1.3,0.558777237,0.581732471,0.604687705,,,
1.31,0.560531058,0.583374438,0.606217819,,,
1.32,0.562271524,0.585004894,0.607738264,,,
1.33,0.563998776,0.586623976,0.609249176,,,
1.34,0.565712956,0.58823182,0.610750683,,,
1.35,0.567414199,0.589828557,0.612242915,,,
1.36,0.569102641,0.591414319,0.613725996,,,
1.37,0.570778415,0.592989232,0.615200048,,,
1.38,0.572441653,0.594553423,0.616665192,,,
1.39,0.574092483,0.596107014,0.618121545,,,
1.4,0.575731033,0.597650127,0.619569221,,,
1.41,0.577357429,0.599182881,0.621008333,,,
1.42,0.578971794,0.600705392,0.622438991,,,
1.43,0.58057425,0.602217777,0.623861303,,,
1.44,0.582164919,0.603720147,0.625275374,,,
1.45,0.583743919,0.605212613,0.626681308,,,
1.46,0.585311366,0.606695286,0.628079205,,,
1.47,0.586867377,0.608168271,0.629469165,,,
1.48,0.588412067,0.609631675,0.630851284,,,
1.49,0.589945547,0.611085602,0.632225658,,,
1.5,0.591467928,0.612530153,0.633592378,,,
1.51,0.592979322,0.61396543,0.634951537,,,
1.52,0.594479836,0.61539153,0.636303224,,,
1.53,0.595969578,0.616808551,0.637647524,,,
1.54,0.597448653,0.618216589,0.638984524,,,
1.55,0.598917167,0.619615737,0.640314307,,,
1.56,0.600375222,0.621006089,0.641636956,,,
1.57,0.601822921,0.622387735,0.642952549,,,
1.58,0.603260365,0.623760765,0.644261166,,,
1.59,0.604687654,0.625125268,0.645562883,,,
1.6,0.606104886,0.626481331,0.646857775,,,
1.61,0.60751216,0.627829038,0.648145917,,,
1.62,0.608909572,0.629168475,0.649427379,,,
1.63,0.610297217,0.630499725,0.650702232,,,
1.64,0.61167519,0.631822868,0.651970546,,,
1.65,0.613043584,0.633137987,0.653232389,,,
1.66,0.614402493,0.634445159,0.654487825,,,
1.67,0.615752007,0.635744464,0.655736921,,,
1.68,0.617092217,0.637035978,0.656979738,,,
1.69,0.618423213,0.638319777,0.658216341,,,
1.7,0.619745083,0.639595936,0.659446789,,,
1.71,0.621057916,0.640864529,0.660671142,,,
1.72,0.622361798,0.642125628,0.661889458,,,
1.73,0.623656815,0.643379305,0.663101794,,,
1.74,0.624943052,0.64462563,0.664308207,,,
1.75,0.626220594,0.645864673,0.665508751,,,
1.76,0.627489525,0.647096502,0.66670348,,,
1.77,0.628749926,0.648321186,0.667892446,,,
1.78,0.63000188,0.64953879,0.6690757,,,
1.79,0.631245467,0.650749381,0.670253294,,,
1.8,0.632480769,0.651953023,0.671425277,,,
1.81,0.633707864,0.65314978,0.672591696,,,
1.82,0.634926832,0.654339715,0.673752599,,,
1.83,0.636137749,0.655522891,0.674908034,,,
1.84,0.637340694,0.656699369,0.676058044,,,
1.85,0.638535742,0.657869209,0.677202676,,,
1.86,0.63972297,0.659032471,0.678341972,,,
1.87,0.640902452,0.660189214,0.679475975,,,
1.88,0.642074262,0.661339496,0.680604729,,,
1.89,0.643238475,0.662483374,0.681728273,,,
1.9,0.644395162,0.663620905,0.682846648,,,
1.91,0.645544396,0.664752145,0.683959894,,,
1.92,0.646686249,0.665877149,0.68506805,,,
1.93,0.64782079,0.666995972,0.686171153,,,
1.94,0.64894809,0.668108666,0.687269242,,,
1.95,0.650068218,0.669215286,0.688362354,,,
1.96,0.651181244,0.670315883,0.689450523,,,
1.97,0.652287234,0.67141051,0.690533786,,,
1.98,0.653386256,0.672499216,0.691612177,,,
1.99,0.654478376,0.673582054,0.692685731,,,
2,0.655563661,0.674659071,0.693754481,,,
2.01,0.656642177,0.675730318,0.69481846,,,
2.02,0.657713986,0.676795843,0.6958777,,,
2.03,0.658779154,0.677855694,0.696932234,,,
2.04,0.659837745,0.678909919,0.697982093,,,
2.05,0.660889819,0.679958563,0.699027306,,,
2.06,0.661935441,0.681001673,0.700067906,,,
2.07,0.66297467,0.682039295,0.701103921,,,
2.08,0.664007568,0.683071475,0.702135381,,,
2.09,0.665034196,0.684098255,0.703162314,,,
2.1,0.666054612,0.685119681,0.70418475,,,
2.11,0.667068876,0.686135796,0.705202715,,,
2.12,0.668077046,0.687146642,0.706216238,,,
2.13,0.66907918,0.688152263,0.707225346,,,
2.14,0.670075334,0.6891527,0.708230065,,,
2.15,0.671065566,0.690147994,0.709230423,,,
2.16,0.672049932,0.691138188,0.710226444,,,
2.17,0.673028486,0.69212332,0.711218154,,,
2.18,0.674001283,0.693103431,0.712205579,,,
2.19,0.674968379,0.694078561,0.713188744,,,
2.2,0.675929825,0.695048749,0.714167673,,,
2.21,0.676885676,0.696014033,0.715142391,,,
2.22,0.677835984,0.696974452,0.716112921,,,
2.23,0.6787808,0.697930044,0.717079287,,,
2.24,0.679720176,0.698880845,0.718041513,,,
2.25,0.680654163,0.699826893,0.718999622,,,
2.26,0.681582811,0.700768224,0.719953636,,,
2.27,0.682506169,0.701704874,0.720903579,,,
2.28,0.683424287,0.702636879,0.721849472,,,
2.29,0.684337214,0.703564275,0.722791337,,,
2.3,0.685244996,0.704487097,0.723729197,,,
2.31,0.686147683,0.705405378,0.724663072,,,
2.32,0.68704532,0.706319153,0.725592985,,,
2.33,0.687937955,0.707228456,0.726518956,,,
2.34,0.688825632,0.70813332,0.727441007,,,
2.35,0.689708398,0.709033778,0.728359158,,,
2.36,0.690586298,0.709929864,0.729273429,,,
2.37,0.691459375,0.710821608,0.730183841,,,
2.38,0.692327675,0.711709045,0.731090415,,,
2.39,0.693191239,0.712592204,0.731993169,,,
2.4,0.694050111,0.713471118,0.732892124,,,
2.41,0.694904334,0.714345817,0.7337873,,,
2.42,0.695753949,0.715216332,0.734678715,,,
2.43,0.696598998,0.716082694,0.73556639,,,
2.44,0.697439522,0.716944932,0.736450342,,,
2.45,0.698275561,0.717803076,0.737330592,,,
2.46,0.699107155,0.718657156,0.738207158,,,
2.47,0.699934345,0.719507201,0.739080058,,,
2.48,0.700757168,0.72035324,0.739949311,,,
2.49,0.701575664,0.7211953,0.740814936,,,
2.5,0.702389872,0.722033411,0.74167695,,,
2.51,0.703199827,0.7228676,0.742535372,,,
2.52,0.704005569,0.723697895,0.74339022,,,
2.53,0.704807135,0.724524323,0.744241512,,,
2.54,0.705604559,0.725346912,0.745089264,,,
2.55,0.706397879,0.726165688,0.745933496,,,
2.56,0.707187131,0.726980677,0.746774223,,,
2.57,0.707972349,0.727791907,0.747611465,,,
2.58,0.708753569,0.728599403,0.748445237,,,
2.59,0.709530824,0.729403191,0.749275557,,,
2.6,0.710304149,0.730203296,0.750102443,,,
2.61,0.711073577,0.730999744,0.75092591,,,
2.62,0.711839143,0.731792559,0.751745976,,,
2.63,0.712600878,0.732581767,0.752562657,,,
2.64,0.713358814,0.733367392,0.75337597,,,
2.65,0.714112986,0.734149459,0.754185932,,,
2.66,0.714863423,0.734927991,0.754992559,,,
2.67,0.715610157,0.735703012,0.755795866,,,
2.68,0.71635322,0.736474546,0.756595872,,,
2.69,0.717092641,0.737242616,0.75739259,,,
2.7,0.717828452,0.738007246,0.758186039,,,
2.71,0.718560683,0.738768457,0.758976232,,,
2.72,0.719289362,0.739526274,0.759763187,,,
2.73,0.720014519,0.740280719,0.760546919,,,
2.74,0.720736183,0.741031813,0.761327444,,,
2.75,0.721454382,0.741779579,0.762104776,,,
2.76,0.722169146,0.742524039,0.762878933,,,
2.77,0.722880501,0.743265215,0.763649928,,,
2.78,0.723588476,0.744003127,0.764417779,,,
2.79,0.724293098,0.744737798,0.765182498,,,
2.8,0.724994393,0.745469248,0.765944103,,,
2.81,0.725692389,0.746197498,0.766702608,,,
2.82,0.726387111,0.746922569,0.767458027,,,
2.83,0.727078587,0.747644482,0.768210376,,,
2.84,0.727766841,0.748363256,0.768959671,,,
2.85,0.728451899,0.749078912,0.769705924,,,
2.86,0.729133787,0.749791469,0.770449152,,,
2.87,0.729812529,0.750500948,0.771189368,,,
2.88,0.73048815,0.751207369,0.771926588,,,
2.89,0.731160674,0.75191075,0.772660825,,,
2.9,0.731830126,0.75261111,0.773392095,,,
2.91,0.732496528,0.75330847,0.774120411,,,
2.92,0.733159906,0.754002847,0.774845788,,,
2.93,0.733820282,0.754694261,0.775568239,,,
2.94,0.734477679,0.755382729,0.77628778,,,
2.95,0.73513212,0.756068272,0.777004423,,,
2.96,0.735783627,0.756750905,0.777718184,,,
2.97,0.736432223,0.757430649,0.778429075,,,
2.98,0.73707793,0.75810752,0.779137111,,,
2.99,0.737720769,0.758781537,0.779842306,,,
3,0.738360762,0.759452717,0.780544672,,,
3.01,0.738997931,0.760121077,0.781244224,,,
3.02,0.739632296,0.760786636,0.781940976,,,
3.03,0.740263878,0.761449409,0.78263494,,,
3.04,0.740892698,0.762109414,0.78332613,,,
3.05,0.741518777,0.762766668,0.784014559,,,
3.06,0.742142134,0.763421188,0.784700242,,,
3.07,0.74276279,0.76407299,0.78538319,,,
3.08,0.743380763,0.76472209,0.786063417,,,
3.09,0.743996075,0.765368505,0.786740936,,,
3.1,0.744608743,0.766012252,0.78741576,,,
3.11,0.745218788,0.766653346,0.788087903,,,
3.12,0.745826228,0.767291802,0.788757376,,,
3.13,0.746431082,0.767927637,0.789424193,,,
3.14,0.747033368,0.768560867,0.790088367,,,
3.15,0.747633104,0.769191507,0.790749909,,,
3.16,0.74823031,0.769819572,0.791408834,,,
3.17,0.748825002,0.770445077,0.792065152,,,
3.18,0.749417198,0.771068038,0.792718878,,,
3.19,0.750006917,0.771688469,0.793370022,,,
3.2,0.750594174,0.772306386,0.794018598,,,
3.21,0.751178989,0.772921804,0.794664619,,,
3.22,0.751761377,0.773534736,0.795308095,,,
3.23,0.752341355,0.774145197,0.795949039,,,
3.24,0.752918941,0.774753202,0.796587464,,,
3.25,0.75349415,0.775358766,0.797223381,,,
3.26,0.754066999,0.775961901,0.797856803,,,
3.27,0.754637504,0.776562623,0.798487741,,,
3.28,0.755205681,0.777160944,0.799116207,,,
3.29,0.755771546,0.77775688,0.799742214,,,
3.3,0.756335115,0.778350443,0.800365772,,,
3.31,0.756896403,0.778941648,0.800986893,,,
3.32,0.757455425,0.779530507,0.80160559,,,
3.33,0.758012197,0.780117035,0.802221873,,,
3.34,0.758566733,0.780701244,0.802835754,,,
3.35,0.75911905,0.781283147,0.803447245,,,
3.36,0.75966916,0.781862759,0.804056357,,,
3.37,0.76021708,0.782440091,0.804663102,,,
3.38,0.760762823,0.783015156,0.805267489,,,
3.39,0.761306403,0.783587968,0.805869532,,,
3.4,0.761847836,0.784158538,0.80646924,,,
3.41,0.762387135,0.78472688,0.807066626,,,
3.42,0.762924314,0.785293007,0.8076617,,,
3.43,0.763459386,0.785856929,0.808254472,,,
3.44,0.763992365,0.78641866,0.808844955,,,
3.45,0.764523266,0.786978212,0.809433158,,,
3.46,0.7650521,0.787535597,0.810019093,,,
3.47,0.765578882,0.788090826,0.810602771,,,
3.48,0.766103625,0.788643913,0.811184201,,,
3.49,0.766626341,0.789194868,0.811763395,,,
3.5,0.767147043,0.789743703,0.812340364,,,
3.51,0.767665745,0.790290431,0.812915117,,,
3.52,0.768182458,0.790835062,0.813487666,,,
3.53,0.768697195,0.791377608,0.81405802,,,
3.54,0.76920997,0.79191808,0.814626191,,,
3.55,0.769720793,0.79245649,0.815192188,,,
3.56,0.770229677,0.792992849,0.815756021,,,
3.57,0.770736635,0.793527168,0.816317702,,,
3.58,0.771241677,0.794059458,0.816877239,,,
3.59,0.771744816,0.79458973,0.817434643,,,
3.6,0.772246064,0.795117995,0.817989925,,,
3.61,0.772745432,0.795644263,0.818543094,,,
3.62,0.773242932,0.796168546,0.819094159,,,
3.63,0.773738575,0.796690854,0.819643132,,,
3.64,0.774232373,0.797211197,0.820190021,,,
3.65,0.774724336,0.797729586,0.820734837,,,
3.66,0.775214475,0.798246032,0.821277589,,,
3.67,0.775702802,0.798760545,0.821818287,,,
3.68,0.776189328,0.799273135,0.822356941,,,
3.69,0.776674063,0.799783812,0.82289356,,,
3.7,0.777157018,0.800292586,0.823428153,,,
3.71,0.777638204,0.800799467,0.823960731,,,
3.72,0.778117631,0.801304466,0.824491302,,,
3.73,0.778595309,0.801807592,0.825019875,,,
3.74,0.77907125,0.802308856,0.825546461,,,
3.75,0.779545462,0.802808265,0.826071069,,,
3.76,0.780017956,0.803305832,0.826593707,,,
3.77,0.780488743,0.803801564,0.827114385,,,
3.78,0.780957832,0.804295472,0.827633112,,,
3.79,0.781425233,0.804787565,0.828149897,,,
3.8,0.781890956,0.805277853,0.82866475,,,
3.81,0.78235501,0.805766344,0.829177678,,,
3.82,0.782817406,0.806253049,0.829688691,,,
3.83,0.783278153,0.806737975,0.830197798,,,
3.84,0.783737259,0.807221133,0.830705008,,,
3.85,0.784194735,0.807702532,0.831210329,,,
3.86,0.78465059,0.80818218,0.83171377,,,
3.87,0.785104833,0.808660087,0.83221534,,,
3.88,0.785557474,0.809136261,0.832715048,,,
3.89,0.78600852,0.809610711,0.833212902,,,
3.9,0.786457982,0.810083446,0.833708911,,,
3.91,0.786905868,0.810554475,0.834203082,,,
3.92,0.787352187,0.811023806,0.834695426,,,
3.93,0.787796948,0.811491449,0.835185949,,,
3.94,0.788240159,0.81195741,0.835674661,,,
3.95,0.788681829,0.812421699,0.83616157,,,
3.96,0.789121967,0.812884325,0.836646683,,,
3.97,0.789560581,0.813345296,0.83713001,,,
3.98,0.789997679,0.813804619,0.837611559,,,
3.99,0.790433271,0.814262304,0.838091337,,,
4,0.790867363,0.814718358,0.838569352,,,
4.01,0.791299964,0.815172789,0.839045614,,,
4.02,0.791731083,0.815625606,0.839520129,,,
4.03,0.792160728,0.816076817,0.839992906,,,
4.04,0.792588906,0.816526429,0.840463952,,,
4.05,0.793015625,0.816974451,0.840933277,,,
4.06,0.793440894,0.81742089,0.841400886,,,
4.07,0.79386472,0.817865754,0.841866789,,,
4.08,0.79428711,0.818309052,0.842330993,,,
4.09,0.794708074,0.818750789,0.842793505,,,
4.1,0.795127617,0.819190976,0.843254334,,,
4.11,0.795545748,0.819629618,0.843713487,,,
4.12,0.795962475,0.820066723,0.844170971,,,
4.13,0.796377804,0.820502299,0.844626795,,,
4.14,0.796791743,0.820936354,0.845080965,,,
4.15,0.797204299,0.821368895,0.84553349,,,
4.16,0.797615481,0.821799928,0.845984376,,,
4.17,0.798025294,0.822229462,0.846433631,,,
4.18,0.798433746,0.822657504,0.846881262,,,
4.19,0.798840844,0.823084061,0.847327277,,,
4.2,0.799246596,0.82350914,0.847771683,,,
4.21,0.799651008,0.823932748,0.848214487,,,
4.22,0.800054087,0.824354892,0.848655697,,,
4.23,0.80045584,0.824775579,0.849095319,,,
4.24,0.800856274,0.825194817,0.84953336,,,
4.25,0.801255395,0.825612612,0.849969829,,,
4.26,0.801653211,0.826028971,0.850404731,,,
4.27,0.802049729,0.826443901,0.850838074,,,
4.28,0.802444953,0.826857409,0.851269864,,,
4.29,0.802838893,0.827269501,0.85170011,,,
4.3,0.803231553,0.827680185,0.852128817,,,
4.31,0.80362294,0.828089466,0.852555992,,,
4.32,0.804013061,0.828497352,0.852981643,,,
4.33,0.804401922,0.828903849,0.853405775,,,
4.34,0.80478953,0.829308963,0.853828397,,,
4.35,0.805175891,0.829712702,0.854249514,,,
4.36,0.80556101,0.830115072,0.854669133,,,
4.37,0.805944895,0.830516078,0.855087261,,,
4.38,0.806327551,0.830915728,0.855503905,,,
4.39,0.806708985,0.831314028,0.85591907,,,
4.4,0.807089202,0.831710983,0.856332765,,,
4.41,0.807468209,0.832106602,0.856744994,,,
4.42,0.807846012,0.832500888,0.857155765,,,
4.43,0.808222616,0.83289385,0.857565083,,,
