D1,,,,parameters of the mean fragility,,,D2,,,,parameters of the mean fragility,,
flow depth [m],mean-1sigma fragility,mean fragility,mean+1sigma fragility,median,logarithmic standard deviation,epistemic uncertainty,flow depth [m],mean-1sigma fragility,mean fragility,mean+1sigma fragility,median,logarithmic standard deviation,epistemic uncertainty
0.000001,0,0,0,0.537817167,0.27464424,0.036402708,0.000001,0,0,0,2.462492087,0.685346507,0.030608573
0.01,0,3.39153E-10,1.81984E-09,,,,0.01,0,6.59359E-16,3.85009E-15,,,
0.02,0,1.1416E-08,4.85695E-08,,,,0.02,0,1.15125E-13,5.32064E-13,,,
0.03,0,9.30082E-08,3.42813E-07,,,,0.03,0,2.44883E-12,9.7909E-12,,,
0.04,0,4.20721E-07,1.39634E-06,,,,0.04,0,2.18971E-11,7.86617E-11,,,
0.05,0,1.37438E-06,4.19879E-06,,,,0.05,0,1.21396E-10,4.00595E-10,,,
0.06,0,3.64847E-06,1.04076E-05,,,,0.06,0,4.96577E-10,1.52738E-09,,,
0.07,0,8.38513E-06,2.256E-05,,,,0.07,0,1.64519E-09,4.76586E-09,,,
0.08,0,1.73306E-05,4.43067E-05,,,,0.08,0,4.66826E-09,1.28353E-08,,,
0.09,0,3.30159E-05,8.06679E-05,,,,0.09,0,1.17626E-08,3.08807E-08,,,
0.1,0,5.89619E-05,0.00013831,,,,0.1,0,2.6978E-08,6.79522E-08,,,
0.11,0,9.99108E-05,0.000225843,,,,0.11,0,5.73278E-08,1.39078E-07,,,
0.12,0,0.000162082,0.000354139,,,,0.12,0,1.14356E-07,2.68073E-07,,,
0.13,0,0.000253458,0.000536664,,,,0.13,0,2.16284E-07,4.91243E-07,,,
0.14,0,0.000384087,0.000789829,,,,0.14,0,3.90867E-07,8.62149E-07,,,
0.15,0,0.000566423,0.001133355,,,,0.15,0,6.79125E-07,1.45763E-06,,,
0.16,4.07274E-05,0.00081568,0.001590634,,,,0.16,0,1.14011E-06,2.38526E-06,,,
0.17,0.000111318,0.001150212,0.002189105,,,,0.17,0,1.85688E-06,3.79247E-06,,,
0.18,0.000223188,0.001591903,0.002960617,,,,0.18,1.03871E-08,2.94392E-06,5.87745E-06,,,
0.19,0.00039139,0.002166579,0.003941769,,,,0.19,2.10125E-07,4.55614E-06,8.90216E-06,,,
0.2,0.000634607,0.00290442,0.005174232,,,,0.2,5.91999E-07,6.8997E-06,1.32074E-05,,,
0.21,0.000975695,0.003840358,0.006705021,,,,0.21,1.25933E-06,1.02448E-05,1.92304E-05,,,
0.22,0.001442247,0.005014474,0.0085867,,,,0.22,2.35739E-06,1.49408E-05,2.75243E-05,,,
0.23,0.002067178,0.006472344,0.01087751,,,,0.23,4.08577E-06,2.14332E-05,3.87807E-05,,,
0.24,0.002889308,0.008265343,0.013641379,,,,0.24,6.7131E-06,3.02835E-05,5.3854E-05,,,
0.25,0.003953933,0.010450869,0.016947804,,,,0.25,1.05945E-05,4.21908E-05,7.37872E-05,,,
0.26,0.005313352,0.013092453,0.020871554,,,,0.26,1.61915E-05,5.8016E-05,9.98406E-05,,,
0.27,0.007027324,0.01625975,0.025492176,,,,0.27,2.40952E-05,7.88075E-05,0.00013352,,,
0.28,0.009163407,0.020028335,0.030893264,,,,0.28,3.50513E-05,0.000105828,0.000176605,,,
0.29,0.011797145,0.024479306,0.037161467,,,,0.29,4.99877E-05,0.000140583,0.000231179,,,
0.3,0.015012041,0.029698618,0.044385196,,,,0.3,7.00441E-05,0.000184847,0.00029965,,,
0.31,0.018899253,0.035776135,0.052653017,,,,0.31,9.66011E-05,0.000240689,0.000384776,,,
0.32,0.023556963,0.042804345,0.062051728,,,,0.32,0.00013131,0.000310493,0.000489677,,,
0.33,0.029089334,0.050876726,0.072664118,,,,0.33,0.000176118,0.00039698,0.000617842,,,
0.34,0.035605011,0.060085722,0.084566432,,,,0.34,0.000233292,0.000503208,0.000773124,,,
0.35,0.043215109,0.070520363,0.097825618,,,,0.35,0.000305432,0.000632578,0.000959725,,,
0.36,0.052030653,0.082263526,0.112496399,,,,0.36,0.000395478,0.00078882,0.001182161,,,
0.37,0.062159474,0.095388898,0.128618321,,,,0.37,0.000506699,0.000975959,0.001445218,,,
0.38,0.073702596,0.109957739,0.146212882,,,,0.38,0.000642672,0.001198278,0.001753883,,,
0.39,0.086750179,0.126015552,0.165280925,,,,0.39,0.00080724,0.001460252,0.002113263,,,
0.4,0.101377182,0.143588819,0.185800457,,,,0.4,0.001004451,0.001766469,0.002528486,,,
0.41,0.117638907,0.162681997,0.207725087,,,,0.41,0.001238476,0.002121532,0.003004588,,,
0.42,0.135566686,0.183274965,0.230983243,,,,0.42,0.001513512,0.002529951,0.003546389,,,
0.43,0.155163992,0.205321145,0.255478298,,,,0.43,0.001833665,0.002996016,0.004158367,,,
0.44,0.176403273,0.228746491,0.281089709,,,,0.44,0.002202828,0.003523677,0.004844525,,,
0.45,0.199223834,0.253449499,0.307675164,,,,0.45,0.002624551,0.004116411,0.005608271,,,
0.46,0.223531007,0.279302359,0.33507371,,,,0.46,0.003101919,0.004777113,0.006452307,,,
0.47,0.249196835,0.30615327,0.363109706,,,,0.47,0.003637445,0.005507993,0.007378541,,,
0.48,0.276062343,0.333829878,0.391597412,,,,0.48,0.004232978,0.006310496,0.008388015,,,
0.49,0.303941383,0.362143671,0.42034596,,,,0.49,0.004889653,0.007185264,0.009480876,,,
0.5,0.332625876,0.390895136,0.449164396,,,,0.5,0.005607862,0.008132114,0.010656365,,,
0.51,0.361892185,0.419879366,0.477866546,,,,0.51,0.006387269,0.009150059,0.011912849,,,
0.52,0.391508199,0.448891798,0.506275397,,,,0.52,0.007226854,0.010237364,0.013247874,,,
0.53,0.421240698,0.477733765,0.534226832,,,,0.53,0.008124987,0.011391624,0.01465826,,,
0.54,0.450862513,0.506217529,0.561572546,,,,0.54,0.009079529,0.012609866,0.016140203,,,
0.55,0.48015905,0.534170576,0.588182103,,,,0.55,0.01008794,0.013888674,0.017689408,,,
0.56,0.508933812,0.561438973,0.613944134,,,,0.56,0.011147395,0.015224309,0.019301223,,,
0.57,0.537012666,0.587889709,0.638766752,,,,0.57,0.012254901,0.016612841,0.02097078,,,
0.58,0.564246721,0.613412006,0.662577291,,,,0.58,0.013407396,0.018050264,0.022693132,,,
0.59,0.590513811,0.637917657,0.685321503,,,,0.59,0.014601847,0.019532609,0.024463371,,,
0.6,0.61571868,0.66134052,0.70696236,,,,0.6,0.015835319,0.021056031,0.026276743,,,
0.61,0.639792046,0.683635312,0.727478579,,,,0.61,0.017105037,0.022616886,0.028128734,,,
0.62,0.662688791,0.704775888,0.746862985,,,,0.62,0.018408426,0.024211783,0.03001514,,,
0.63,0.68438552,0.724753159,0.765120799,,,,0.63,0.019743138,0.025837626,0.031932114,,,
0.64,0.704877732,0.743572826,0.782267919,,,,0.64,0.021107066,0.027491632,0.033876198,,,
0.65,0.724176854,0.761253049,0.798329244,,,,0.65,0.022498345,0.029171339,0.035844332,,,
0.66,0.742307281,0.777822176,0.813337072,,,,0.66,0.023915353,0.030874604,0.037833855,,,
0.67,0.759303598,0.793316597,0.827329596,,,,0.67,0.025356691,0.032599589,0.039842488,,,
0.68,0.775208047,0.807778786,0.840349525,,,,0.68,0.026821177,0.034344745,0.041868312,,,
0.69,0.790068307,0.821255565,0.852442823,,,,0.69,0.028307824,0.036108783,0.043909741,,,
0.7,0.803935606,0.833796602,0.863657597,,,,0.7,0.02981582,0.037890655,0.045965491,,,
0.71,0.816863152,0.845453132,0.874043113,,,,0.71,0.031344511,0.039689527,0.048034543,,,
0.72,0.828904864,0.856276912,0.883648959,,,,0.72,0.032893382,0.041504749,0.050116115,,,
0.73,0.840114382,0.866319362,0.892524343,,,,0.73,0.034462037,0.043335831,0.052209624,,,
0.74,0.8505443,0.875630907,0.900717514,,,,0.74,0.036050184,0.045182422,0.05431466,,,
0.75,0.86024561,0.884260459,0.908275308,,,,0.75,0.037657616,0.047044287,0.056430958,,,
0.76,0.869267297,0.892255048,0.915242798,,,,0.76,0.039284201,0.048921285,0.058558369,,,
0.77,0.877656076,0.899659558,0.92166304,,,,0.77,0.040929868,0.050813354,0.060696841,,,
0.78,0.885456227,0.906516562,0.927576896,,,,0.78,0.042594592,0.052720496,0.062846401,,,
0.79,0.892709518,0.912866229,0.93302294,,,,0.79,0.044278391,0.054642761,0.065007131,,,
0.8,0.899455187,0.918746295,0.938037403,,,,0.8,0.045981309,0.056580235,0.067179161,,,
0.81,0.90572997,0.924192075,0.942654179,,,,0.81,0.047703416,0.058533035,0.069362653,,,
0.82,0.911568167,0.929236513,0.946904859,,,,0.82,0.049444797,0.060501294,0.07155779,,,
0.83,0.917001729,0.933910264,0.950818799,,,,0.83,0.051205547,0.062485158,0.073764769,,,
0.84,0.922060363,0.938241781,0.9544232,,,,0.84,0.052985767,0.064484779,0.075983791,,,
0.85,0.926771645,0.94225743,0.957743214,,,,0.85,0.054785563,0.066500311,0.078215059,,,
0.86,0.931161142,0.945981596,0.96080205,,,,0.86,0.056605035,0.068531904,0.080458772,,,
0.87,0.93525253,0.949436809,0.963621087,,,,0.87,0.058444284,0.070579702,0.08271512,,,
0.88,0.939067722,0.952643858,0.966219995,,,,0.88,0.060303401,0.07264384,0.08498428,,,
0.89,0.942626979,0.955621911,0.968616843,,,,0.89,0.062182471,0.074724445,0.087266419,,,
0.9,0.945949029,0.958388624,0.97082822,,,,0.9,0.06408157,0.076821628,0.089561686,,,
0.91,0.949051176,0.960960258,0.972869341,,,,0.91,0.066000763,0.07893549,0.091870216,,,
0.92,0.951949403,0.963351777,0.974754151,,,,0.92,0.067940103,0.081066114,0.094192126,,,
0.93,0.954658471,0.96557695,0.976495428,,,,0.93,0.069899631,0.083213573,0.096527515,,,
0.94,0.957192011,0.967648442,0.978104873,,,,0.94,0.071879379,0.085377922,0.098876466,,,
0.95,0.95956261,0.969577905,0.979593199,,,,0.95,0.07387936,0.087559202,0.101239043,,,
0.96,0.961781893,0.971376054,0.980970214,,,,0.96,0.075899581,0.089757437,0.103615293,,,
0.97,0.963860598,0.973052746,0.982244894,,,,0.97,0.077940031,0.091972639,0.106005247,,,
0.98,0.965808643,0.974617051,0.983425458,,,,0.98,0.080000688,0.094204803,0.108408919,,,
0.99,0.967635193,0.97607731,0.984519428,,,,0.99,0.082081517,0.096453911,0.110826305,,,
1,0.969348716,0.977441204,0.985533691,,,,1,0.084182471,0.098719929,0.113257388,,,
1.01,0.970957043,0.978715799,0.986474554,,,,1.01,0.08630349,0.101002812,0.115702135,,,
1.02,0.972467416,0.979907605,0.987347794,,,,1.02,0.088444501,0.103302499,0.118160497,,,
1.03,0.973886532,0.981022617,0.988158702,,,,1.03,0.090605422,0.105618919,0.120632416,,,
1.04,0.975220589,0.982066359,0.988912129,,,,1.04,0.092786154,0.107951985,0.123117815,,,
1.05,0.976475327,0.983043925,0.989612522,,,,1.05,0.094986593,0.110301601,0.125616608,,,
1.06,0.977656061,0.983960009,0.990263958,,,,1.06,0.09720662,0.112667659,0.128128698,,,
1.07,0.978767713,0.984818945,0.990870178,,,,1.07,0.099446106,0.11505004,0.130653973,,,
1.08,0.979814849,0.985624732,0.991434616,,,,1.08,0.101704912,0.117448614,0.133192316,,,
1.09,0.9808017,0.986381063,0.991960425,,,,1.09,0.103982889,0.119863241,0.135743594,,,
1.1,0.981732194,0.987091348,0.992450503,,,,1.1,0.106279879,0.122293774,0.138307669,,,
1.11,0.982609975,0.987758742,0.992907509,,,,1.11,0.108595713,0.124740052,0.140884392,,,
1.12,0.983438427,0.98838616,0.993333894,,,,1.12,0.110930215,0.127201911,0.143473606,,,
1.13,0.984220694,0.988976301,0.993731907,,,,1.13,0.113283199,0.129679173,0.146075148,,,
1.14,0.9849597,0.989531661,0.994103622,,,,1.14,0.115654471,0.132171658,0.148688845,,,
1.15,0.98565816,0.990054554,0.994450947,,,,1.15,0.11804383,0.134679174,0.151314518,,,
1.16,0.986318605,0.990547122,0.99477564,,,,1.16,0.120451065,0.137201524,0.153951983,,,
1.17,0.986943385,0.991011354,0.995079322,,,,1.17,0.122875959,0.139738504,0.15660105,,,
1.18,0.987534695,0.991449091,0.995363488,,,,1.18,0.125318289,0.142289905,0.15926152,,,
1.19,0.988094574,0.991862045,0.995629515,,,,1.19,0.127777824,0.144855509,0.161933194,,,
1.2,0.988624927,0.992251803,0.995878679,,,,1.2,0.130254326,0.147435095,0.164615864,,,
1.21,0.989127527,0.99261984,0.996112153,,,,1.21,0.132747552,0.150028437,0.167309321,,,
1.22,0.989604033,0.992967529,0.996331026,,,,1.22,0.135257252,0.152635301,0.17001335,,,
1.23,0.990055988,0.993296145,0.996536301,,,,1.23,0.137783172,0.155255451,0.172727731,,,
1.24,0.990484837,0.993606873,0.996728908,,,,1.24,0.140325049,0.157888647,0.175452245,,,
1.25,0.99089193,0.993900819,0.996909707,,,,1.25,0.14288262,0.160534643,0.178186665,,,
1.26,0.991278526,0.994179011,0.997079495,,,,1.26,0.145455613,0.163193189,0.180930765,,,
1.27,0.991645807,0.994442408,0.997239009,,,,1.27,0.148043754,0.165864034,0.183684315,,,
1.28,0.991994874,0.994691903,0.997388933,,,,1.28,0.150646761,0.168546922,0.186447082,,,
1.29,0.992326761,0.994928331,0.997529902,,,,1.29,0.153264353,0.171241593,0.189218833,,,
1.3,0.992642435,0.99515247,0.997662504,,,,1.3,0.155896241,0.173947786,0.191999331,,,
1.31,0.992942804,0.995365044,0.997787285,,,,1.31,0.158542134,0.176665236,0.194788338,,,
1.32,0.993228717,0.995566735,0.997904752,,,,1.32,0.161201736,0.179393677,0.197585617,,,
1.33,0.99350097,0.995758174,0.998015378,,,,1.33,0.163874751,0.182132839,0.200390927,,,
1.34,0.993760311,0.995939955,0.9981196,,,,1.34,0.166560877,0.184882452,0.203204028,,,
1.35,0.994007443,0.996112634,0.998217825,,,,1.35,0.16925981,0.187642244,0.206024677,,,
1.36,0.994243023,0.996276728,0.998310433,,,,1.36,0.171971244,0.190411939,0.208852634,,,
1.37,0.994467672,0.996432725,0.998397777,,,,1.37,0.174694869,0.193191263,0.211687656,,,
1.38,0.99468197,0.996581078,0.998480186,,,,1.38,0.177430375,0.195979938,0.2145295,,,
1.39,0.994886466,0.996722216,0.998557966,,,,1.39,0.180177449,0.198777686,0.217377923,,,
1.4,0.995081673,0.996856538,0.998631403,,,,1.4,0.182935775,0.20158423,0.220232685,,,
1.41,0.995268077,0.996984419,0.998700762,,,,1.41,0.185705036,0.204399289,0.223093541,,,
1.42,0.995446132,0.997106212,0.998766293,,,,1.42,0.188484916,0.207222583,0.22596025,,,
1.43,0.995616268,0.997222247,0.998828227,,,,1.43,0.191275094,0.210053833,0.228832572,,,
1.44,0.99577889,0.997332835,0.998886781,,,,1.44,0.194075249,0.212892757,0.231710265,,,
1.45,0.995934379,0.997438268,0.998942157,,,,1.45,0.196885061,0.215739076,0.23459309,,,
1.46,0.996083094,0.997538819,0.998994544,,,,1.46,0.199704208,0.218592508,0.237480807,,,
1.47,0.996225375,0.997634747,0.999044119,,,,1.47,0.202532366,0.221452772,0.240373179,,,
1.48,0.996361542,0.997726295,0.999091048,,,,1.48,0.205369212,0.22431959,0.243269969,,,
1.49,0.996491896,0.997813691,0.999135485,,,,1.49,0.208214423,0.227192681,0.24617094,,,
1.5,0.996616724,0.997897149,0.999177575,,,,1.5,0.211067675,0.230071766,0.249075858,,,
1.51,0.996736294,0.997976874,0.999217454,,,,1.51,0.213928644,0.232956567,0.25198449,,,
1.52,0.996850862,0.998053055,0.999255248,,,,1.52,0.216797008,0.235846806,0.254896604,,,
1.53,0.996960667,0.998125872,0.999291078,,,,1.53,0.219672442,0.238742206,0.257811971,,,
1.54,0.997065939,0.998195496,0.999325054,,,,1.54,0.222554624,0.241642492,0.26073036,,,
1.55,0.997166892,0.998262087,0.999357281,,,,1.55,0.225443233,0.244547389,0.263651545,,,
1.56,0.997263731,0.998325794,0.999387858,,,,1.56,0.228337947,0.247456624,0.266575301,,,
1.57,0.997356648,0.998386762,0.999416877,,,,1.57,0.231238445,0.250369924,0.269501403,,,
1.58,0.997445826,0.998445125,0.999444425,,,,1.58,0.234144408,0.253287019,0.27242963,,,
1.59,0.997531439,0.998501011,0.999470582,,,,1.59,0.237055517,0.25620764,0.275359763,,,
1.6,0.99761365,0.998554538,0.999495426,,,,1.6,0.239971456,0.259131519,0.278291582,,,
1.61,0.997692616,0.998605822,0.999519029,,,,1.61,0.24289191,0.262058391,0.281224871,,,
1.62,0.997768484,0.998654971,0.999541457,,,,1.62,0.245816563,0.26498799,0.284159418,,,
1.63,0.997841395,0.998702084,0.999562774,,,,1.63,0.248745103,0.267920055,0.287095008,,,
1.64,0.99791148,0.99874726,0.999583041,,,,1.64,0.25167722,0.270854326,0.290031432,,,
1.65,0.997978866,0.99879059,0.999602313,,,,1.65,0.254612604,0.273790544,0.292968483,,,
1.66,0.998043674,0.998832159,0.999620644,,,,1.66,0.257550949,0.276728452,0.295905954,,,
1.67,0.998106016,0.99887205,0.999638084,,,,1.67,0.26049195,0.279667795,0.298843641,,,
1.68,0.998166001,0.99891034,0.999654679,,,,1.68,0.263435303,0.282608323,0.301781343,,,
1.69,0.998223732,0.998947103,0.999670474,,,,1.69,0.266380709,0.285549785,0.304718861,,,
1.7,0.998279306,0.998982409,0.999685511,,,,1.7,0.269327869,0.288491933,0.307655997,,,
1.71,0.998332817,0.999016323,0.999699829,,,,1.71,0.272276488,0.291434522,0.310592557,,,
1.72,0.998384352,0.999048909,0.999713466,,,,1.72,0.275226272,0.294377309,0.313528347,,,
1.73,0.998433996,0.999080226,0.999726456,,,,1.73,0.278176931,0.297320054,0.316463177,,,
1.74,0.998481829,0.999110331,0.999738832,,,,1.74,0.281128177,0.300262518,0.319396859,,,
1.75,0.998527927,0.999139277,0.999750627,,,,1.75,0.284079725,0.303204466,0.322329207,,,
1.76,0.998572363,0.999167116,0.999761869,,,,1.76,0.287031294,0.306145666,0.325260038,,,
1.77,0.998615206,0.999193896,0.999772587,,,,1.77,0.289982603,0.309085886,0.328189169,,,
1.78,0.998656522,0.999219664,0.999782806,,,,1.78,0.292933377,0.312024899,0.331116421,,,
1.79,0.998696373,0.999244463,0.999792552,,,,1.79,0.295883344,0.314962481,0.334041619,,,
1.8,0.99873482,0.999268334,0.999801849,,,,1.8,0.298832232,0.317898409,0.336964586,,,
1.81,0.99877192,0.999291319,0.999810718,,,,1.81,0.301779777,0.320832464,0.339885151,,,
1.82,0.998807727,0.999313454,0.999819181,,,,1.82,0.304725714,0.323764428,0.342803143,,,
1.83,0.998842294,0.999334776,0.999827258,,,,1.83,0.307669783,0.326694089,0.345718395,,,
1.84,0.998875669,0.999355318,0.999834968,,,,1.84,0.310611729,0.329621235,0.34863074,,,
1.85,0.998907901,0.999375114,0.999842328,,,,1.85,0.313551299,0.332545658,0.351540017,,,
1.86,0.998939034,0.999394195,0.999849356,,,,1.86,0.316488243,0.335467152,0.354446062,,,
1.87,0.998969113,0.99941259,0.999856067,,,,1.87,0.319422315,0.338385516,0.357348717,,,
1.88,0.998998177,0.999430327,0.999862478,,,,1.88,0.322353274,0.34130055,0.360247825,,,
1.89,0.999026267,0.999447434,0.999868601,,,,1.89,0.325280881,0.344212057,0.363143232,,,
1.9,0.999053421,0.999463936,0.999874452,,,,1.9,0.328204901,0.347119843,0.366034786,,,
1.91,0.999079674,0.999479858,0.999880043,,,,1.91,0.331125104,0.350023719,0.368922334,,,
1.92,0.999105061,0.999495223,0.999885386,,,,1.92,0.334041263,0.352923497,0.37180573,,,
1.93,0.999129615,0.999510054,0.999890493,,,,1.93,0.336953154,0.355818991,0.374684828,,,
1.94,0.999153368,0.999524372,0.999895375,,,,1.94,0.339860558,0.35871002,0.377559482,,,
1.95,0.99917635,0.999538196,0.999900043,,,,1.95,0.34276326,0.361596406,0.380429552,,,
1.96,0.999198589,0.999551548,0.999904506,,,,1.96,0.345661048,0.364477972,0.383294897,,,
1.97,0.999220114,0.999564444,0.999908775,,,,1.97,0.348553715,0.367354547,0.386155379,,,
1.98,0.999240951,0.999576904,0.999912857,,,,1.98,0.351441058,0.37022596,0.389010862,,,
1.99,0.999261126,0.999588944,0.999916763,,,,1.99,0.354322876,0.373092045,0.391861214,,,
2,0.999280662,0.99960058,0.999920499,,,,2,0.357198974,0.375952637,0.394706301,,,
2.01,0.999299583,0.999611828,0.999924073,,,,2.01,0.360069162,0.378807578,0.397545993,,,
2.02,0.999317913,0.999622703,0.999927494,,,,2.02,0.362933251,0.381656707,0.400380164,,,
2.03,0.999335671,0.999633219,0.999930767,,,,2.03,0.365791058,0.384499872,0.403208686,,,
2.04,0.999352878,0.999643389,0.9999339,,,,2.04,0.368642404,0.38733692,0.406031435,,,
2.05,0.999369555,0.999653227,0.999936899,,,,2.05,0.371487114,0.390167702,0.40884829,,,
2.06,0.999385721,0.999662745,0.99993977,,,,2.06,0.374325016,0.392992073,0.41165913,,,
2.07,0.999401393,0.999671956,0.999942518,,,,2.07,0.377155944,0.39580989,0.414463835,,,
2.08,0.999416588,0.999680869,0.99994515,,,,2.08,0.379979734,0.398621012,0.417262291,,,
2.09,0.999431325,0.999689497,0.99994767,,,,2.09,0.382796227,0.401425304,0.420054381,,,
2.1,0.999445618,0.99969785,0.999950083,,,,2.1,0.385605268,0.40422263,0.422839992,,,
2.11,0.999459483,0.999705938,0.999952394,,,,2.11,0.388406707,0.40701286,0.425619014,,,
2.12,0.999472935,0.999713771,0.999954608,,,,2.12,0.391200395,0.409795866,0.428391336,,,
2.13,0.999485988,0.999721358,0.999956728,,,,2.13,0.393986192,0.412571521,0.431156851,,,
2.14,0.999498656,0.999728707,0.999958759,,,,2.14,0.396763956,0.415339705,0.433915453,,,
2.15,0.999510952,0.999735828,0.999960705,,,,2.15,0.399533553,0.418100296,0.436667038,,,
2.16,0.999522889,0.999742729,0.999962569,,,,2.16,0.402294853,0.420853178,0.439411502,,,
2.17,0.999534478,0.999749417,0.999964355,,,,2.17,0.405047727,0.423598236,0.442148746,,,
2.18,0.999545733,0.9997559,0.999966067,,,,2.18,0.407792053,0.426335361,0.444878669,,,
2.19,0.999556662,0.999762185,0.999967707,,,,2.19,0.41052771,0.429064442,0.447601174,,,
2.2,0.999567279,0.999768279,0.999969278,,,,2.2,0.413254583,0.431785375,0.450316167,,,
2.21,0.999577592,0.999774188,0.999970784,,,,2.21,0.41597256,0.434498056,0.453023551,,,
2.22,0.999587613,0.99977992,0.999972228,,,,2.22,0.418681533,0.437202384,0.455723235,,,
2.23,0.99959735,0.99978548,0.999973611,,,,2.23,0.421381397,0.439898263,0.458415128,,,
2.24,0.999606813,0.999790875,0.999974937,,,,2.24,0.424072052,0.442585596,0.461099141,,,
2.25,0.999616011,0.999796109,0.999976208,,,,2.25,0.426753399,0.445264292,0.463775185,,,
