D2,,,,parameters of the mean fragility,,,D3,,,,parameters of the mean fragility,,,D4,,,,parameters of the mean fragility,,
flow depth [m],mean-1sigma fragility,mean fragility,mean+1sigma fragility,median,logarithmic standard deviation,epistemic uncertainty,flow depth [m],mean-1sigma fragility,mean fragility,mean+1sigma fragility,median,logarithmic standard deviation,epistemic uncertainty,flow depth [m],mean-1sigma fragility,mean fragility,mean+1sigma fragility,median,logarithmic standard deviation,epistemic uncertainty
0.000001,0,6.13945E-16,1.37104E-14,3.784937572,0.438765978,0.04502765,0.000001,0,0,0,4.544703057,0.328068974,0.044403264,0.000001,0,0,0,6.571315891,1.35737627,0.251524356
0.01,0,2.00058E-07,6.86889E-07,,,,0.01,0,4.73884E-12,3.98725E-11,,,,0.01,0,1.86994E-12,1.50503E-11,,,
0.02,0,1.0393E-06,3.03182E-06,,,,0.02,0,6.96848E-11,4.84525E-10,,,,0.02,0,2.85551E-11,1.91567E-10,,,
0.03,0,2.76048E-06,7.35549E-06,,,,0.03,0,3.44531E-10,2.11735E-09,,,,0.03,0,1.4414E-10,8.60232E-10,,,
0.04,0,5.55325E-06,1.3906E-05,,,,0.04,0,1.08462E-09,6.07638E-09,,,,0.04,0,4.60242E-10,2.51683E-09,,,
0.05,0,9.58257E-06,2.28944E-05,,,,0.05,0,2.66082E-09,1.38381E-08,,,,0.05,0,1.14123E-09,5.818E-09,,,
0.06,0,1.4998E-05,3.45084E-05,,,,0.06,0,5.56912E-09,2.7214E-08,,,,0.06,0,2.40918E-09,1.15816E-08,,,
0.07,0,2.19382E-05,4.89186E-05,,,,0.07,0,1.04399E-08,4.83514E-08,,,,0.07,0,4.54868E-09,2.07888E-08,,,
0.08,0,3.05337E-05,6.62829E-05,,,,0.08,0,1.80469E-08,7.97372E-08,,,,0.08,0,7.91142E-09,3.45865E-08,,,
0.09,0,4.09086E-05,8.67492E-05,,,,0.09,0,2.93157E-08,1.24202E-07,,,,0.09,0,1.29207E-08,5.42912E-08,,,
0.1,0,5.31816E-05,0.000110457,,,,0.1,0,4.53327E-08,1.84926E-07,,,,0.1,0,2.00757E-08,8.1392E-08,,,
0.11,0,6.7467E-05,0.000137538,,,,0.11,0,6.73529E-08,2.65445E-07,,,,0.11,0,2.99561E-08,1.17554E-07,,,
0.12,0,8.38754E-05,0.00016812,,,,0.12,0,9.68083E-08,3.69655E-07,,,,0.12,0,4.32259E-08,1.64624E-07,,,
0.13,2.7039E-06,0.000102514,0.000202324,,,,0.13,0,1.35316E-07,5.01821E-07,,,,0.13,0,6.0638E-08,2.2463E-07,,,
0.14,6.70818E-06,0.000123487,0.000240266,,,,0.14,0,1.84686E-07,6.6658E-07,,,,0.14,0,8.30381E-08,2.99789E-07,,,
0.15,1.17341E-05,0.000146897,0.00028206,,,,0.15,0,2.4693E-07,8.6895E-07,,,,0.15,0,1.11369E-07,3.92509E-07,,,
0.16,1.78716E-05,0.000172842,0.000327813,,,,0.16,0,3.24265E-07,1.11434E-06,,,,0.16,0,1.46674E-07,5.05395E-07,,,
0.17,2.52099E-05,0.000201421,0.000377632,,,,0.17,0,4.19129E-07,1.40854E-06,,,,0.17,0,1.90102E-07,6.41247E-07,,,
0.18,3.38371E-05,0.000232729,0.00043162,,,,0.18,0,5.34179E-07,1.75775E-06,,,,0.18,0,2.42911E-07,8.0307E-07,,,
0.19,4.38409E-05,0.000266859,0.000489876,,,,0.19,0,6.72307E-07,2.16857E-06,,,,0.19,0,3.06471E-07,9.94074E-07,,,
0.2,5.53082E-05,0.000303903,0.000552499,,,,0.2,0,8.3664E-07,2.64802E-06,,,,0.2,0,3.8227E-07,1.21768E-06,,,
0.21,6.83252E-05,0.000343953,0.000619582,,,,0.21,0,1.03055E-06,3.20353E-06,,,,0.21,0,4.71916E-07,1.47752E-06,,,
0.22,8.29777E-05,0.000387098,0.000691219,,,,0.22,0,1.25768E-06,3.84295E-06,,,,0.22,0,5.77143E-07,1.77745E-06,,,
0.23,9.9351E-05,0.000433426,0.0007675,,,,0.23,0,1.52189E-06,4.57457E-06,,,,0.23,0,6.99813E-07,2.12153E-06,,,
0.24,0.00011753,0.000483022,0.000848515,,,,0.24,0,1.82736E-06,5.40711E-06,,,,0.24,0,8.41918E-07,2.51405E-06,,,
0.25,0.000137598,0.000535974,0.000934351,,,,0.25,0,2.17852E-06,6.34973E-06,,,,0.25,0,1.00559E-06,2.95955E-06,,,
0.26,0.000159639,0.000592366,0.001025092,,,,0.26,0,2.58007E-06,7.41205E-06,,,,0.26,0,1.1931E-06,3.46277E-06,,,
0.27,0.000183737,0.00065228,0.001120823,,,,0.27,0,3.03701E-06,8.60411E-06,,,,0.27,0,1.40686E-06,4.0287E-06,,,
0.28,0.000209974,0.0007158,0.001221626,,,,0.28,0,3.55465E-06,9.93646E-06,,,,0.28,0,1.64943E-06,4.66256E-06,,,
0.29,0.000238434,0.000783008,0.001327582,,,,0.29,0,4.13859E-06,1.14201E-05,,,,0.29,0,1.92353E-06,5.36981E-06,,,
0.3,0.000269198,0.000853984,0.00143877,,,,0.3,0,4.79472E-06,1.30664E-05,,,,0.3,0,2.23203E-06,6.15615E-06,,,
0.31,0.000302347,0.000928808,0.001555268,,,,0.31,0,5.52929E-06,1.48873E-05,,,,0.31,0,2.57794E-06,7.02755E-06,,,
0.32,0.000337964,0.001007559,0.001677153,,,,0.32,0,6.34883E-06,1.68953E-05,,,,0.32,0,2.96447E-06,7.99019E-06,,,
0.33,0.00037613,0.001090315,0.001804501,,,,0.33,0,7.26023E-06,1.91033E-05,,,,0.33,0,3.39496E-06,9.05055E-06,,,
0.34,0.000416925,0.001177155,0.001937385,,,,0.34,0,8.2707E-06,2.15245E-05,,,,0.34,0,3.87294E-06,1.02153E-05,,,
0.35,0.000460429,0.001268155,0.00207588,,,,0.35,0,9.3878E-06,2.4173E-05,,,,0.35,0,4.40211E-06,1.14915E-05,,,
0.36,0.000506724,0.001363391,0.002220058,,,,0.36,0,1.06194E-05,2.7063E-05,,,,0.36,0,4.98634E-06,1.28862E-05,,,
0.37,0.000555888,0.001462939,0.002369989,,,,0.37,0,1.19739E-05,3.02095E-05,,,,0.37,0,5.6297E-06,1.44071E-05,,,
0.38,0.000608002,0.001566873,0.002525744,,,,0.38,0,1.34598E-05,3.36278E-05,,,,0.38,0,6.33641E-06,1.60618E-05,,,
0.39,0.000663145,0.001675269,0.002687392,,,,0.39,0,1.5086E-05,3.73339E-05,,,,0.39,0,7.11092E-06,1.78585E-05,,,
0.4,0.000721395,0.001788198,0.002855002,,,,0.4,0,1.68621E-05,4.13441E-05,,,,0.4,0,7.95783E-06,1.98053E-05,,,
0.41,0.000782832,0.001905736,0.00302864,,,,0.41,0,1.87978E-05,4.56754E-05,,,,0.41,0,8.88197E-06,2.1911E-05,,,
0.42,0.000847534,0.002027953,0.003208373,,,,0.42,0,2.09031E-05,5.03452E-05,,,,0.42,0,9.88834E-06,2.41842E-05,,,
0.43,0.000915579,0.002154923,0.003394266,,,,0.43,0,2.31887E-05,5.53716E-05,,,,0.43,0,1.09822E-05,2.66342E-05,,,
0.44,0.000987045,0.002286715,0.003586385,,,,0.44,0,2.56654E-05,6.07731E-05,,,,0.44,0,1.21688E-05,2.92705E-05,,,
0.45,0.00106201,0.002423402,0.003784793,,,,0.45,0,2.83447E-05,6.65686E-05,,,,0.45,0,1.3454E-05,3.21026E-05,,,
0.46,0.001140551,0.002565053,0.003989554,,,,0.46,0,3.12382E-05,7.27779E-05,,,,0.46,0,1.48435E-05,3.51406E-05,,,
0.47,0.001222746,0.002711738,0.004200729,,,,0.47,0,3.43581E-05,7.94211E-05,,,,0.47,0,1.63434E-05,3.83947E-05,,,
0.48,0.001308671,0.002863526,0.00441838,,,,0.48,0,3.77171E-05,8.65189E-05,,,,0.48,0,1.796E-05,4.18756E-05,,,
0.49,0.001398404,0.003020486,0.004642568,,,,0.49,0,4.13282E-05,9.40925E-05,,,,0.49,0,1.96997E-05,4.55941E-05,,,
0.5,0.00149202,0.003182686,0.004873353,,,,0.5,0,4.52048E-05,0.000102164,,,,0.5,0,2.15693E-05,4.95613E-05,,,
0.51,0.001589595,0.003350195,0.005110794,,,,0.51,0,4.93608E-05,0.000110755,,,,0.51,0,2.35757E-05,5.37888E-05,,,
0.52,0.001691207,0.003523079,0.00535495,,,,0.52,0,5.38106E-05,0.000119889,,,,0.52,0,2.57261E-05,5.82882E-05,,,
0.53,0.00179693,0.003701405,0.005605879,,,,0.53,0,5.8569E-05,0.000129589,,,,0.53,0,2.8028E-05,6.30717E-05,,,
0.54,0.00190684,0.003885239,0.005863638,,,,0.54,0,6.36513E-05,0.00013988,,,,0.54,0,3.04889E-05,6.81516E-05,,,
0.55,0.002021012,0.004074648,0.006128283,,,,0.55,0,6.90732E-05,0.000150786,,,,0.55,0,3.31168E-05,7.35406E-05,,,
0.56,0.002139521,0.004269696,0.006399871,,,,0.56,0,7.48509E-05,0.000162332,,,,0.56,0,3.59198E-05,7.92516E-05,,,
0.57,0.002262442,0.004470449,0.006678457,,,,0.57,0,8.1001E-05,0.000174544,,,,0.57,0,3.89062E-05,8.5298E-05,,,
0.58,0.002389849,0.004676972,0.006964094,,,,0.58,0,8.75408E-05,0.000187449,,,,0.58,0,4.20848E-05,9.16933E-05,,,
0.59,0.002521817,0.004889328,0.007256838,,,,0.59,0,9.44879E-05,0.000201073,,,,0.59,0,4.54645E-05,9.84515E-05,,,
0.6,0.002658419,0.005107581,0.007556742,,,,0.6,0,0.00010186,0.000215443,,,,0.6,0,4.90542E-05,0.000105587,,,
0.61,0.00279973,0.005331794,0.007863858,,,,0.61,0,0.000109677,0.000230589,,,,0.61,0,5.28636E-05,0.000113114,,,
0.62,0.002945822,0.00556203,0.008178239,,,,0.62,0,0.000117956,0.000246537,,,,0.62,0,5.69022E-05,0.000121047,,,
0.63,0.003096769,0.005798352,0.008499935,,,,0.63,0,0.000126719,0.000263319,,,,0.63,0,6.11799E-05,0.000129402,,,
0.64,0.003252644,0.006040821,0.008828998,,,,0.64,0,0.000135984,0.000280963,,,,0.64,0,6.5707E-05,0.000138195,,,
0.65,0.00341352,0.006289499,0.009165479,,,,0.65,0,0.000145773,0.0002995,,,,0.65,0,7.0494E-05,0.00014744,,,
0.66,0.003579468,0.006544448,0.009509427,,,,0.66,0,0.000156107,0.000318962,,,,0.66,0,7.55515E-05,0.000157154,,,
0.67,0.003750562,0.006805726,0.009860891,,,,0.67,0,0.000167007,0.000339378,,,,0.67,0,8.08906E-05,0.000167354,,,
0.68,0.003926873,0.007073396,0.01021992,,,,0.68,0,0.000178496,0.000360783,,,,0.68,0,8.65226E-05,0.000178057,,,
0.69,0.004108473,0.007347517,0.010586562,,,,0.69,0,0.000190596,0.000383209,,,,0.69,0,9.24591E-05,0.000189279,,,
0.7,0.004295432,0.007628148,0.010960864,,,,0.7,0,0.000203331,0.000406688,,,,0.7,0,9.8712E-05,0.000201038,,,
0.71,0.004487823,0.007915349,0.011342874,,,,0.71,2.1938E-06,0.000216725,0.000431256,,,,0.71,0,0.000105293,0.000213351,,,
0.72,0.004685717,0.008209177,0.011732637,,,,0.72,4.65682E-06,0.000230801,0.000456946,,,,0.72,0,0.000112216,0.000226238,,,
0.73,0.004889182,0.008509691,0.012130201,,,,0.73,7.37783E-06,0.000245586,0.000483794,,,,0.73,0,0.000119491,0.000239716,,,
0.74,0.005098291,0.00881695,0.012535609,,,,0.74,1.0372E-05,0.000261104,0.000511835,,,,0.74,4.64465E-07,0.000127134,0.000253804,,,
0.75,0.005313113,0.00913101,0.012948907,,,,0.75,1.36551E-05,0.000277381,0.000541107,,,,0.75,1.79265E-06,0.000135157,0.000268521,,,
0.76,0.005533717,0.009451928,0.013370139,,,,0.76,1.72433E-05,0.000294444,0.000571646,,,,0.76,3.25951E-06,0.000143573,0.000283886,,,
0.77,0.005760173,0.009779761,0.013799349,,,,0.77,2.11534E-05,0.000312321,0.000603489,,,,0.77,4.87313E-06,0.000152396,0.00029992,,,
0.78,0.00599255,0.010114565,0.01423658,,,,0.78,2.54026E-05,0.000331039,0.000636675,,,,0.78,6.64187E-06,0.000161642,0.000316642,,,
0.79,0.006230917,0.010456396,0.014681875,,,,0.79,3.00089E-05,0.000350626,0.000671242,,,,0.79,8.57435E-06,0.000171324,0.000334073,,,
0.8,0.006475343,0.010805309,0.015135275,,,,0.8,3.49906E-05,0.000371111,0.00070723,,,,0.8,1.06795E-05,0.000181457,0.000352234,,,
0.81,0.006725895,0.011161359,0.015596823,,,,0.81,4.03667E-05,0.000392523,0.00074468,,,,0.81,1.29665E-05,0.000192056,0.000371145,,,
0.82,0.006982641,0.0115246,0.01606656,,,,0.82,4.61567E-05,0.000414893,0.00078363,,,,0.82,1.54449E-05,0.000203136,0.000390828,,,
0.83,0.00724565,0.011895088,0.016544525,,,,0.83,5.23807E-05,0.000438252,0.000824123,,,,0.83,1.81243E-05,0.000214715,0.000411305,,,
0.84,0.007514988,0.012272874,0.01703076,,,,0.84,5.90593E-05,0.00046263,0.000866201,,,,0.84,2.1015E-05,0.000226807,0.000432598,,,
0.85,0.007790722,0.012658013,0.017525305,,,,0.85,6.62139E-05,0.000488059,0.000909905,,,,0.85,2.41272E-05,0.000239428,0.000454729,,,
0.86,0.008072919,0.013050558,0.018028197,,,,0.86,7.38662E-05,0.000514572,0.000955279,,,,0.86,2.74717E-05,0.000252597,0.000477722,,,
0.87,0.008361645,0.01345056,0.018539475,,,,0.87,8.20388E-05,0.000542202,0.001002366,,,,0.87,3.10594E-05,0.000266329,0.000501598,,,
0.88,0.008656966,0.013858073,0.019059179,,,,0.88,9.07546E-05,0.000570982,0.00105121,,,,0.88,3.49017E-05,0.000280642,0.000526382,,,
0.89,0.008958948,0.014273146,0.019587345,,,,0.89,0.000100037,0.000600947,0.001101856,,,,0.89,3.901E-05,0.000295554,0.000552098,,,
0.9,0.009267656,0.014695833,0.02012401,,,,0.9,0.000109911,0.000632131,0.00115435,,,,0.9,4.33965E-05,0.000311082,0.000578768,,,
0.91,0.009583154,0.015126183,0.020669212,,,,0.91,0.000120401,0.000664569,0.001208737,,,,0.91,4.80732E-05,0.000327246,0.000606419,,,
0.92,0.009905508,0.015564247,0.021222985,,,,0.92,0.000131533,0.000698298,0.001265063,,,,0.92,5.30528E-05,0.000344063,0.000635074,,,
0.93,0.010234781,0.016010074,0.021785367,,,,0.93,0.000143332,0.000733354,0.001323376,,,,0.93,5.83482E-05,0.000361553,0.000664758,,,
0.94,0.010571038,0.016463715,0.022356392,,,,0.94,0.000155827,0.000769775,0.001383723,,,,0.94,6.39725E-05,0.000379735,0.000695498,,,
0.95,0.010914342,0.016925218,0.022936094,,,,0.95,0.000169043,0.000807598,0.001446153,,,,0.95,6.99395E-05,0.000398629,0.000727318,,,
0.96,0.011264755,0.017394632,0.023524508,,,,0.96,0.000183009,0.000846862,0.001510715,,,,0.96,7.62628E-05,0.000418254,0.000760246,,,
0.97,0.011622342,0.017872004,0.024121667,,,,0.97,0.000197754,0.000887605,0.001577457,,,,0.97,8.29569E-05,0.000438631,0.000794306,,,
0.98,0.011987163,0.018357384,0.024727605,,,,0.98,0.000213307,0.000929868,0.001646429,,,,0.98,9.00362E-05,0.000459781,0.000829526,,,
0.99,0.012359281,0.018850818,0.025342355,,,,0.99,0.000229699,0.000973691,0.001717683,,,,0.99,9.75156E-05,0.000481725,0.000865934,,,
1,0.012738757,0.019352352,0.025965948,,,,1,0.00024696,0.001019114,0.001791269,,,,1,0.000105411,0.000504483,0.000903555,,,
1.01,0.013125653,0.019862034,0.026598416,,,,1.01,0.000265122,0.00106618,0.001867238,,,,1.01,0.000113737,0.000528078,0.000942419,,,
1.02,0.013520029,0.02037991,0.027239791,,,,1.02,0.000284216,0.00111493,0.001945643,,,,1.02,0.00012251,0.000552531,0.000982552,,,
1.03,0.013921946,0.020906025,0.027890103,,,,1.03,0.000304275,0.001165406,0.002026537,,,,1.03,0.000131746,0.000577865,0.001023984,,,
1.04,0.014331464,0.021440424,0.028549384,,,,1.04,0.000325333,0.001217653,0.002109973,,,,1.04,0.000141462,0.000604103,0.001066743,,,
1.05,0.014748641,0.021983151,0.029217661,,,,1.05,0.000347425,0.001271715,0.002196005,,,,1.05,0.000151676,0.000631267,0.001110858,,,
1.06,0.015173538,0.022534252,0.029894966,,,,1.06,0.000370584,0.001327635,0.002284686,,,,1.06,0.000162404,0.000659381,0.001156358,,,
1.07,0.015606212,0.023093769,0.030581326,,,,1.07,0.000394847,0.00138546,0.002376073,,,,1.07,0.000173664,0.000688469,0.001203273,,,
1.08,0.016046722,0.023661746,0.03127677,,,,1.08,0.000420249,0.001445235,0.00247022,,,,1.08,0.000185475,0.000718554,0.001251633,,,
1.09,0.016495126,0.024238226,0.031981327,,,,1.09,0.000446829,0.001507006,0.002567183,,,,1.09,0.000197854,0.000749661,0.001301468,,,
1.1,0.016951481,0.024823252,0.032695023,,,,1.1,0.000474622,0.001570821,0.002667019,,,,1.1,0.000210822,0.000781815,0.001352808,,,
1.11,0.017415843,0.025416865,0.033417886,,,,1.11,0.000503668,0.001636727,0.002769785,,,,1.11,0.000224396,0.00081504,0.001405684,,,
1.12,0.01788827,0.026019106,0.034149941,,,,1.12,0.000534006,0.001704772,0.002875538,,,,1.12,0.000238597,0.000849363,0.001460128,,,
1.13,0.018368818,0.026630017,0.034891216,,,,1.13,0.000565676,0.001775007,0.002984337,,,,1.13,0.000253445,0.000884808,0.001516171,,,
1.14,0.01885754,0.027249638,0.035641735,,,,1.14,0.000598718,0.001847479,0.00309624,,,,1.14,0.00026896,0.000921402,0.001573845,,,
1.15,0.019354494,0.027878009,0.036401524,,,,1.15,0.000633173,0.001922239,0.003211305,,,,1.15,0.000285162,0.000959172,0.001633182,,,
1.16,0.019859732,0.02851517,0.037170608,,,,1.16,0.000669084,0.001999339,0.003329593,,,,1.16,0.000302074,0.000998144,0.001694213,,,
1.17,0.02037331,0.029161159,0.037949009,,,,1.17,0.000706493,0.002078829,0.003451164,,,,1.17,0.000319716,0.001038344,0.001756973,,,
1.18,0.02089528,0.029816016,0.038736753,,,,1.18,0.000745444,0.002160761,0.003576078,,,,1.18,0.00033811,0.001079801,0.001821493,,,
1.19,0.021425696,0.030479779,0.039533862,,,,1.19,0.00078598,0.002245188,0.003704396,,,,1.19,0.000357279,0.001122543,0.001887807,,,
1.2,0.021964609,0.031152485,0.04034036,,,,1.2,0.000828147,0.002332163,0.003836179,,,,1.2,0.000377245,0.001166597,0.001955948,,,
1.21,0.022512073,0.03183417,0.041156267,,,,1.21,0.00087199,0.00242174,0.00397149,,,,1.21,0.000398032,0.001211991,0.002025951,,,
1.22,0.023068139,0.032524873,0.041981607,,,,1.22,0.000917556,0.002513973,0.004110391,,,,1.22,0.000419663,0.001258756,0.002097849,,,
1.23,0.023632857,0.033224629,0.0428164,,,,1.23,0.000964892,0.002608918,0.004252944,,,,1.23,0.000442161,0.001306919,0.002171677,,,
1.24,0.024206278,0.033933473,0.043660668,,,,1.24,0.001014045,0.00270663,0.004399214,,,,1.24,0.000465551,0.00135651,0.002247469,,,
1.25,0.024788452,0.034651441,0.04451443,,,,1.25,0.001065065,0.002807164,0.004549264,,,,1.25,0.000489857,0.001407559,0.00232526,,,
1.26,0.025379428,0.035378568,0.045377707,,,,1.26,0.001118,0.002910579,0.004703158,,,,1.26,0.000515105,0.001460096,0.002405086,,,
1.27,0.025979255,0.036114887,0.046250519,,,,1.27,0.001172901,0.00301693,0.00486096,,,,1.27,0.00054132,0.001514151,0.002486982,,,
1.28,0.026587981,0.036860432,0.047132883,,,,1.28,0.001229818,0.003126277,0.005022736,,,,1.28,0.000568528,0.001569756,0.002570983,,,
1.29,0.027205654,0.037615237,0.048024819,,,,1.29,0.001288803,0.003238677,0.005188552,,,,1.29,0.000596754,0.00162694,0.002657126,,,
1.3,0.027832321,0.038379333,0.048926345,,,,1.3,0.001349908,0.00335419,0.005358473,,,,1.3,0.000626026,0.001685737,0.002745447,,,
1.31,0.028468028,0.039152753,0.049837478,,,,1.31,0.001413186,0.003472876,0.005532565,,,,1.31,0.00065637,0.001746176,0.002835983,,,
1.32,0.029112822,0.039935529,0.050758235,,,,1.32,0.001478691,0.003594794,0.005710896,,,,1.32,0.000687814,0.001808292,0.00292877,,,
1.33,0.029766747,0.040727691,0.051688634,,,,1.33,0.001546477,0.003720005,0.005893532,,,,1.33,0.000720385,0.001872115,0.003023844,,,
1.34,0.030429849,0.041529269,0.05262869,,,,1.34,0.0016166,0.003848571,0.006080541,,,,1.34,0.000754111,0.001937678,0.003121245,,,
1.35,0.031102171,0.042340295,0.053578419,,,,1.35,0.001689116,0.003980553,0.00627199,,,,1.35,0.000789022,0.002005015,0.003221008,,,
1.36,0.031783758,0.043160797,0.054537837,,,,1.36,0.00176408,0.004116014,0.006467949,,,,1.36,0.000825145,0.002074158,0.003323172,,,
1.37,0.032474651,0.043990804,0.055506958,,,,1.37,0.001841551,0.004255018,0.006668485,,,,1.37,0.000862511,0.002145142,0.003427774,,,
1.38,0.033174894,0.044830345,0.056485796,,,,1.38,0.001921586,0.004397627,0.006873667,,,,1.38,0.000901148,0.002218001,0.003534854,,,
1.39,0.033884528,0.045679447,0.057474366,,,,1.39,0.002004245,0.004543905,0.007083565,,,,1.39,0.000941087,0.002292768,0.003644448,,,
1.4,0.034603594,0.046538138,0.058472681,,,,1.4,0.002089586,0.004693918,0.007298249,,,,1.4,0.000982358,0.002369478,0.003756597,,,
1.41,0.035332133,0.047406443,0.059480754,,,,1.41,0.002177671,0.004847729,0.007517788,,,,1.41,0.001024993,0.002448166,0.003871339,,,
1.42,0.036070183,0.04828439,0.060498597,,,,1.42,0.00226856,0.005005406,0.007742252,,,,1.42,0.001069021,0.002528867,0.003988712,,,
1.43,0.036817786,0.049172004,0.061526223,,,,1.43,0.002362314,0.005167014,0.007971713,,,,1.43,0.001114476,0.002611616,0.004108757,,,
1.44,0.037574978,0.05006931,0.062563643,,,,1.44,0.002458997,0.005332619,0.008206241,,,,1.44,0.001161388,0.00269645,0.004231512,,,
1.45,0.038341797,0.050976333,0.063610868,,,,1.45,0.00255867,0.005502289,0.008445907,,,,1.45,0.001209789,0.002783404,0.004357019,,,
1.46,0.039118282,0.051893096,0.06466791,,,,1.46,0.002661399,0.005676091,0.008690783,,,,1.46,0.001259714,0.002872515,0.004485315,,,
1.47,0.039904467,0.052819622,0.065734777,,,,1.47,0.002767247,0.005854094,0.008940941,,,,1.47,0.001311194,0.002963818,0.004616442,,,
1.48,0.04070039,0.053755935,0.06681148,,,,1.48,0.002876279,0.006036366,0.009196452,,,,1.48,0.001364263,0.003057352,0.00475044,,,
1.49,0.041506084,0.054702056,0.067898029,,,,1.49,0.002988562,0.006222976,0.00945739,,,,1.49,0.001418955,0.003153152,0.00488735,,,
1.5,0.042321585,0.055658008,0.068994431,,,,1.5,0.003104161,0.006413993,0.009723826,,,,1.5,0.001475304,0.003251258,0.005027211,,,
1.51,0.043146926,0.056623811,0.070100696,,,,1.51,0.003223144,0.006609489,0.009995833,,,,1.51,0.001533345,0.003351705,0.005170066,,,
1.52,0.043982139,0.057599486,0.071216832,,,,1.52,0.003345579,0.006809532,0.010273485,,,,1.52,0.001593111,0.003454533,0.005315954,,,
1.53,0.044827258,0.058585052,0.072342846,,,,1.53,0.003471534,0.007014194,0.010556854,,,,1.53,0.001654639,0.003559779,0.005464918,,,
1.54,0.045682314,0.059580529,0.073478744,,,,1.54,0.003601078,0.007223546,0.010846015,,,,1.54,0.001717964,0.003667481,0.005616999,,,
1.55,0.046547337,0.060585936,0.074624535,,,,1.55,0.003734281,0.007437661,0.01114104,,,,1.55,0.001783122,0.00377768,0.005772237,,,
1.56,0.047422357,0.06160129,0.075780223,,,,1.56,0.003871214,0.007656609,0.011442004,,,,1.56,0.001850149,0.003890412,0.005930676,,,
1.57,0.048307405,0.062626609,0.076945814,,,,1.57,0.004011947,0.007880464,0.011748981,,,,1.57,0.001919082,0.004005719,0.006092356,,,
1.58,0.049202507,0.063661911,0.078121314,,,,1.58,0.004156552,0.008109299,0.012062045,,,,1.58,0.001989957,0.004123638,0.00625732,,,
