D1,,,,parameters of the mean fragility,,,D2,,,,parameters of the mean fragility,,,D3,,,,parameters of the mean fragility,,
flow depth [m],mean-1sigma fragility,mean fragility,mean+1sigma fragility,median,logarithmic standard deviation,epistemic uncertainty,flow depth [m],mean-1sigma fragility,mean fragility,mean+1sigma fragility,median,logarithmic standard deviation,epistemic uncertainty,flow depth [m],mean-1sigma fragility,mean fragility,mean+1sigma fragility,median,logarithmic standard deviation,epistemic uncertainty
0.000001,0,2.21316E-16,8.39525E-15,0.53900497,0.453103199,0.092116477,0.000001,0,0,0,2.611917413,0.639134023,0.095435196,0.000001,0,0,0,3.793573764,0.764271409,0.174145702
0.01,0,2.21229E-06,1.09491E-05,,,,0.01,0,4.13103E-11,5.29029E-10,,,,0.01,0,9.53291E-13,1.9042E-11,,,
0.02,0,1.73258E-05,6.54016E-05,,,,0.02,0,9.0493E-10,9.6221E-09,,,,0.02,0,2.68914E-11,4.59951E-10,,,
0.03,0,5.97174E-05,0.000194333,,,,0.03,0,5.75387E-09,5.32349E-08,,,,0.03,0,1.96202E-10,3.00933E-09,,,
0.04,0,0.000146047,0.000429746,,,,0.04,0,2.19342E-08,1.80808E-07,,,,0.04,0,8.20429E-10,1.15127E-08,,,
0.05,0,0.000295149,0.000805071,,,,0.05,0,6.30122E-08,4.69923E-07,,,,0.05,0,2.52586E-09,3.27957E-08,,,
0.06,0,0.000527931,0.001355137,,,,0.06,0,1.51124E-07,1.03103E-06,,,,0.06,0,6.40325E-09,7.74906E-08,,,
0.07,0,0.00086728,0.002116053,,,,0.07,0,3.19654E-07,2.01241E-06,,,,0.07,0,1.41898E-08,1.60882E-07,,,
0.08,0,0.001337967,0.003125049,,,,0.08,0,6.16238E-07,3.60525E-06,,,,0.08,0,2.84875E-08,3.03781E-07,,,
0.09,0,0.00196654,0.004420276,,,,0.09,0,1.10609E-06,6.04908E-06,,,,0.09,0,5.30205E-08,5.33423E-07,,,
0.1,0,0.002781203,0.006040577,,,,0.1,0,1.87565E-06,9.63722E-06,,,,0.1,0,9.29355E-08,8.8439E-07,,,
0.11,0,0.00381168,0.008025227,,,,0.11,0,3.0365E-06,1.47224E-05,,,,0.11,0,1.55147E-07,1.39957E-06,,,
0.12,0,0.005089051,0.010413637,,,,0.12,0,4.72955E-06,2.17226E-05,,,,0.12,0,2.48729E-07,2.1311E-06,,,
0.13,4.60964E-05,0.006645566,0.013245035,,,,0.13,0,7.12942E-06,3.11262E-05,,,,0.13,0,3.85356E-07,3.14136E-06,,,
0.14,0.000470744,0.008514429,0.016558115,,,,0.14,0,1.0449E-05,4.34983E-05,,,,0.14,0,5.79785E-07,4.50397E-06,,,
0.15,0.001068466,0.010729561,0.020390656,,,,0.15,0,1.49441E-05,5.9485E-05,,,,0.15,0,8.50396E-07,6.30472E-06,,,
0.16,0.001871513,0.013325318,0.024779123,,,,0.16,0,2.09182E-05,7.98193E-05,,,,0.16,0,1.21977E-06,8.64256E-06,,,
0.17,0.002914147,0.016336196,0.029758245,,,,0.17,0,2.87267E-05,0.000105324,,,,0.17,0,1.71528E-06,1.16305E-05,,,
0.18,0.004232413,0.019796495,0.035360577,,,,0.18,0,3.87818E-05,0.000136919,,,,0.18,0,2.36979E-06,1.53966E-05,,,
0.19,0.005863864,0.023739957,0.041616051,,,,0.19,0,5.15563E-05,0.000175617,,,,0.19,0,3.22227E-06,2.00845E-05,,,
0.2,0.00784724,0.028199385,0.04855153,,,,0.2,0,6.75871E-05,0.000222535,,,,0.2,0,4.31854E-06,2.58547E-05,,,
0.21,0.010222099,0.033206229,0.05619036,,,,0.21,0,8.74789E-05,0.000278886,,,,0.21,0,5.71193E-06,3.28844E-05,,,
0.22,0.0130284,0.038790168,0.064551937,,,,0.22,0,0.000111906,0.000345984,,,,0.22,0,7.46396E-06,4.13688E-05,,,
0.23,0.016306046,0.044978671,0.073651296,,,,0.23,0,0.000141615,0.00042524,,,,0.23,0,9.64503E-06,5.15211E-05,,,
0.24,0.020094382,0.051796557,0.083498732,,,,0.24,0,0.000177422,0.000518157,,,,0.24,0,1.2335E-05,6.35725E-05,,,
0.25,0.024431663,0.059265563,0.094099462,,,,0.25,0,0.000220219,0.000626327,,,,0.25,0,1.56238E-05,7.77727E-05,,,
0.26,0.029354492,0.067403917,0.105453342,,,,0.26,0,0.000270965,0.000751418,,,,0.26,0,1.96118E-05,9.4389E-05,,,
0.27,0.034897236,0.076225942,0.117554647,,,,0.27,0,0.000330686,0.00089517,,,,0.27,0,2.44103E-05,0.000113706,,,
0.28,0.041091445,0.085741685,0.130391924,,,,0.28,0,0.000400473,0.001059382,,,,0.28,0,3.01419E-05,0.000136027,,,
0.29,0.047965252,0.095956592,0.143947932,,,,0.29,0,0.000481473,0.001245896,,,,0.29,0,3.69403E-05,0.000161667,,,
0.3,0.055542806,0.106871236,0.158199666,,,,0.3,0,0.000574883,0.001456582,,,,0.3,0,4.49507E-05,0.000190959,,,
0.31,0.063843717,0.118481102,0.173118486,,,,0.31,0,0.000681943,0.001693326,,,,0.31,0,5.43294E-05,0.000224248,,,
0.32,0.072882551,0.130776443,0.188670336,,,,0.32,0,0.000803926,0.001958006,,,,0.32,0,6.52435E-05,0.00026189,,,
0.33,0.082668369,0.143742217,0.204816065,,,,0.33,0,0.000942126,0.002252478,,,,0.33,0,7.78707E-05,0.00030425,,,
0.34,0.093204347,0.157358093,0.22151184,,,,0.34,0,0.001097849,0.002578554,,,,0.34,0,9.23983E-05,0.000351699,,,
0.35,0.104487468,0.171598554,0.238709641,,,,0.35,0,0.001272399,0.002937982,,,,0.35,0,0.000109023,0.000404613,,,
0.36,0.116508318,0.186433077,0.256357837,,,,0.36,0,0.001467068,0.003332429,,,,0.36,0,0.000127948,0.000463372,,,
0.37,0.129250984,0.201826399,0.274401815,,,,0.37,0,0.001683119,0.003763463,,,,0.37,0,0.000149386,0.000528352,,,
0.38,0.142693068,0.217738863,0.292784658,,,,0.38,0,0.001921777,0.004232531,,,,0.38,0,0.000173555,0.000599928,,,
0.39,0.156805832,0.234126839,0.311447847,,,,0.39,0,0.002184217,0.004740949,,,,0.39,0,0.000200675,0.000678468,,,
0.4,0.171554448,0.250943211,0.330331974,,,,0.4,0,0.002471551,0.005289883,,,,0.4,0,0.000230972,0.000764334,,,
0.41,0.186898394,0.268137919,0.349377443,,,,0.41,0,0.002784816,0.005880342,,,,0.41,0,0.000264674,0.000857875,,,
0.42,0.202791944,0.285658544,0.368525144,,,,0.42,0,0.00312497,0.006513166,,,,0.42,0,0.000302008,0.000959428,,,
0.43,0.219184774,0.303450933,0.387717091,,,,0.43,0,0.00349288,0.007189018,,,,0.43,0,0.000343203,0.001069317,,,
0.44,0.23602266,0.321459829,0.406896998,,,,0.44,0,0.003889315,0.007908387,,,,0.44,0,0.000388483,0.001187849,,,
0.45,0.253248242,0.339629517,0.426010792,,,,0.45,0,0.004314946,0.008671579,,,,0.45,0,0.000438071,0.001315313,,,
0.46,0.270801842,0.357904451,0.44500706,,,,0.46,6.19544E-05,0.004770341,0.009478727,,,,0.46,0,0.000492187,0.001451979,,,
0.47,0.288622313,0.376229863,0.463837414,,,,0.47,0.00018213,0.005255961,0.010329792,,,,0.47,0,0.000551043,0.001598101,,,
0.48,0.306647887,0.394552334,0.482456781,,,,0.48,0.000319763,0.005772168,0.011224574,,,,0.48,0,0.000614849,0.00175391,,,
0.49,0.324817008,0.412820313,0.500823618,,,,0.49,0.000475728,0.006319222,0.012162717,,,,0.49,0,0.000683806,0.00191962,,,
0.5,0.343069122,0.430984591,0.518900059,,,,0.5,0.000650846,0.006897287,0.013143727,,,,0.5,0,0.000758111,0.002095424,,,
0.51,0.361345407,0.448998701,0.536651995,,,,0.51,0.000845886,0.007506435,0.014166983,,,,0.51,0,0.00083795,0.002281497,,,
0.52,0.379589422,0.466819257,0.554049092,,,,0.52,0.001061558,0.008146654,0.015231751,,,,0.52,0,0.000923507,0.002477995,,,
0.53,0.397747669,0.484406217,0.571064765,,,,0.53,0.001298516,0.008817857,0.016337199,,,,0.53,0,0.001014955,0.002685058,,,
0.54,0.415770054,0.50172308,0.587676106,,,,0.54,0.001557358,0.009519886,0.017482415,,,,0.54,0,0.001112461,0.00290281,,,
0.55,0.433610248,0.51873701,0.603863772,,,,0.55,0.001838623,0.010252522,0.018666422,,,,0.55,0,0.001216188,0.003131357,,,
0.56,0.451225943,0.535418898,0.619611854,,,,0.56,0.002142798,0.011015495,0.019888191,,,,0.56,0,0.00132629,0.003370796,,,
0.57,0.468579007,0.551743357,0.634907706,,,,0.57,0.002470318,0.011808488,0.021146658,,,,0.57,0,0.001442916,0.003621209,,,
0.58,0.48563556,0.567688668,0.649741775,,,,0.58,0.002821568,0.012631151,0.022440735,,,,0.58,0,0.001566208,0.003882669,,,
0.59,0.502365953,0.583236677,0.664107401,,,,0.59,0.003196889,0.013483106,0.023769324,,,,0.59,0,0.001696307,0.004155238,,,
0.6,0.518744687,0.598372649,0.678000612,,,,0.6,0.003596577,0.014363953,0.025131329,,,,0.6,0,0.001833348,0.004438973,,,
0.61,0.534750271,0.613085095,0.691419919,,,,0.61,0.004020894,0.015273278,0.026525662,,,,0.61,0,0.00197746,0.004733922,,,
0.62,0.550365034,0.627365564,0.704366094,,,,0.62,0.004470063,0.016210659,0.027951256,,,,0.62,0,0.002128772,0.00504013,,,
0.63,0.565574897,0.641208429,0.71684196,,,,0.63,0.004944277,0.017175673,0.029407069,,,,0.63,0,0.00228741,0.005357636,,,
0.64,0.580369131,0.654610651,0.72885217,,,,0.64,0.005443704,0.018167897,0.030892091,,,,0.64,0,0.002453497,0.00568648,,,
0.65,0.594740086,0.667571545,0.740403004,,,,0.65,0.005968486,0.019186917,0.032405347,,,,0.65,0,0.002627156,0.006026696,,,
0.66,0.60868292,0.680092538,0.751502156,,,,0.66,0.006518744,0.020232325,0.033945905,,,,0.66,0,0.002808508,0.00637832,,,
0.67,0.622195333,0.692176939,0.762158545,,,,0.67,0.007094581,0.021303727,0.035512874,,,,0.67,0,0.002997673,0.006741388,,,
0.68,0.635277289,0.703829707,0.772382125,,,,0.68,0.007696086,0.022400746,0.037105406,,,,0.68,0,0.003194772,0.007115936,,,
0.69,0.647930762,0.715057236,0.78218371,,,,0.69,0.008323336,0.023523018,0.0387227,,,,0.69,0,0.003399925,0.007502002,,,
0.7,0.660159489,0.72586715,0.791574811,,,,0.7,0.008976394,0.024670197,0.040364001,,,,0.7,0,0.003613255,0.007899623,,,
0.71,0.671968731,0.736268109,0.800567486,,,,0.71,0.009655319,0.025841957,0.042028595,,,,0.71,0,0.003834882,0.008308842,,,
0.72,0.683365061,0.746269631,0.809174201,,,,0.72,0.01036016,0.027037989,0.043715817,,,,0.72,0,0.004064929,0.008729703,,,
0.73,0.694356157,0.755881933,0.817407709,,,,0.73,0.011090961,0.028258002,0.045425043,,,,0.73,0,0.004303521,0.009162251,,,
0.74,0.704950616,0.765115777,0.825280938,,,,0.74,0.011847763,0.029501726,0.04715569,,,,0.74,0,0.004550782,0.009606535,,,
0.75,0.715157791,0.773982342,0.832806894,,,,0.75,0.012630603,0.030768909,0.048907214,,,,0.75,0,0.004806839,0.010062608,,,
0.76,0.724987634,0.782493103,0.839998572,,,,0.76,0.013439515,0.032059313,0.050679112,,,,0.76,0,0.005071818,0.010530523,,,
0.77,0.734450559,0.790659723,0.846868887,,,,0.77,0.014274531,0.033372723,0.052470915,,,,0.77,0,0.005345851,0.011010338,,,
0.78,0.743557323,0.798493964,0.853430606,,,,0.78,0.015135682,0.034708934,0.054282186,,,,0.78,0,0.005629066,0.011502112,,,
0.79,0.752318916,0.806007606,0.859696296,,,,0.79,0.016023,0.036067761,0.056112523,,,,0.79,0,0.005921597,0.012005909,,,
0.8,0.760746469,0.813212375,0.865678281,,,,0.8,0.016936512,0.037449031,0.057961551,,,,0.8,0,0.006223575,0.012521792,,,
0.81,0.76885117,0.820119885,0.8713886,,,,0.81,0.017876247,0.038852585,0.059828924,,,,0.81,2.04453E-05,0.006535137,0.013049829,,,
0.82,0.776644193,0.826741587,0.876838982,,,,0.82,0.018842234,0.040278277,0.06171432,,,,0.82,0.000122747,0.006856418,0.013590089,,,
0.83,0.784136637,0.83308873,0.882040824,,,,0.83,0.019834499,0.041725971,0.063617443,,,,0.83,0.000232468,0.007187555,0.014142643,,,
0.84,0.791339476,0.839172321,0.887005166,,,,0.84,0.020853069,0.043195542,0.065538016,,,,0.84,0.000349811,0.007528687,0.014707562,,,
0.85,0.798263515,0.845003102,0.891742689,,,,0.85,0.021897969,0.044686875,0.067475782,,,,0.85,0.000474981,0.007879952,0.015284922,,,
0.86,0.804919355,0.850591526,0.896263697,,,,0.86,0.022969223,0.046199863,0.069430503,,,,0.86,0.000608185,0.008241491,0.015874798,,,
0.87,0.811317359,0.85594774,0.90057812,,,,0.87,0.024066855,0.047734406,0.071401957,,,,0.87,0.000749627,0.008613446,0.016477265,,,
0.88,0.817467638,0.861081573,0.904695508,,,,0.88,0.025190887,0.049290412,0.073389937,,,,0.88,0.000899514,0.008995957,0.0170924,,,
0.89,0.823380024,0.866002528,0.908625033,,,,0.89,0.026341337,0.050867793,0.07539425,,,,0.89,0.001058054,0.009389168,0.017720282,,,
0.9,0.829064061,0.870719778,0.912375496,,,,0.9,0.027518223,0.052466468,0.077414713,,,,0.9,0.001225454,0.009793221,0.018360988,,,
0.91,0.834528996,0.875242161,0.915955327,,,,0.91,0.02872156,0.054086358,0.079451155,,,,0.91,0.001401922,0.010208259,0.019014596,,,
0.92,0.839783769,0.879578183,0.919372596,,,,0.92,0.029951362,0.055727389,0.081503417,,,,0.92,0.001587668,0.010634426,0.019681184,,,
0.93,0.844837014,0.883736018,0.922635022,,,,0.93,0.031207636,0.05738949,0.083571344,,,,0.93,0.0017829,0.011071866,0.020360831,,,
0.94,0.849697054,0.887723515,0.925749977,,,,0.94,0.03249039,0.059072592,0.085654793,,,,0.94,0.001987829,0.011520721,0.021053613,,,
0.95,0.854371904,0.891548203,0.928724501,,,,0.95,0.033799625,0.060776625,0.087753625,,,,0.95,0.002202663,0.011981136,0.021759609,,,
0.96,0.858869277,0.895217294,0.931565312,,,,0.96,0.035135342,0.062501525,0.089867709,,,,0.96,0.002427613,0.012453253,0.022478893,,,
0.97,0.863196582,0.898737697,0.934278813,,,,0.97,0.036497533,0.064247225,0.091996917,,,,0.97,0.00266289,0.012937215,0.023211541,,,
0.98,0.867360935,0.902116021,0.936871107,,,,0.98,0.037886189,0.066013658,0.094141127,,,,0.98,0.002908702,0.013433165,0.023957629,,,
0.99,0.871369164,0.905358587,0.93934801,,,,0.99,0.039301296,0.067800758,0.09630022,,,,0.99,0.003165261,0.013941244,0.024717228,,,
1,0.875227814,0.908471435,0.941715055,,,,1,0.040742833,0.069608458,0.098474082,,,,1,0.003432776,0.014461593,0.025490411,,,
1.01,0.878943158,0.911460335,0.943977511,,,,1.01,0.042210776,0.071436688,0.100662601,,,,1.01,0.003711457,0.014994352,0.026277248,,,
1.02,0.882521205,0.914330798,0.946140391,,,,1.02,0.043705094,0.07328538,0.102865666,,,,1.02,0.004001512,0.01553966,0.027077809,,,
1.03,0.885967704,0.917088083,0.948208463,,,,1.03,0.045225751,0.075154461,0.105083171,,,,1.03,0.004303151,0.016097655,0.02789216,,,
1.04,0.889288161,0.91973721,0.950186259,,,,1.04,0.046772705,0.077043857,0.107315008,,,,1.04,0.00461658,0.016668474,0.028720367,,,
1.05,0.892487839,0.922282965,0.95207809,,,,1.05,0.048345907,0.078953491,0.109561074,,,,1.05,0.004942008,0.017252251,0.029562494,,,
1.06,0.895571775,0.924729915,0.953888054,,,,1.06,0.049945302,0.080883284,0.111821266,,,,1.06,0.005279639,0.017849121,0.030418603,,,
1.07,0.898544782,0.927082413,0.955620045,,,,1.07,0.051570828,0.082833154,0.114095479,,,,1.07,0.005629679,0.018459216,0.031288753,,,
1.08,0.901411462,0.929344612,0.957277762,,,,1.08,0.053222417,0.084803015,0.116383614,,,,1.08,0.00599233,0.019082666,0.032173003,,,
1.09,0.904176213,0.931520468,0.958864722,,,,1.09,0.054899994,0.086792781,0.118685567,,,,1.09,0.006367796,0.019719602,0.033071407,,,
1.1,0.906843239,0.933613752,0.960384265,,,,1.1,0.056603475,0.088802357,0.121001239,,,,1.1,0.006756277,0.020370148,0.03398402,,,
1.11,0.909416557,0.935628061,0.961839566,,,,1.11,0.05833277,0.090831649,0.123330528,,,,1.11,0.00715797,0.021034431,0.034910892,,,
1.12,0.911900003,0.937566821,0.96323364,,,,1.12,0.060087781,0.092880558,0.125673334,,,,1.12,0.007573074,0.021712574,0.035852073,,,
1.13,0.914297244,0.939433297,0.964569351,,,,1.13,0.061868404,0.09494898,0.128029557,,,,1.13,0.008001781,0.022404696,0.03680761,,,
1.14,0.916611784,0.941230602,0.965849421,,,,1.14,0.063674524,0.097036809,0.130399094,,,,1.14,0.008444286,0.023110916,0.037777546,,,
1.15,0.918846969,0.942961702,0.967076436,,,,1.15,0.06550602,0.099143933,0.132781847,,,,1.15,0.008900778,0.023831351,0.038761923,,,
1.16,0.921005997,0.944629425,0.968252853,,,,1.16,0.067362762,0.101270238,0.135177714,,,,1.16,0.009371444,0.024566113,0.039760782,,,
1.17,0.923091923,0.946236464,0.969381005,,,,1.17,0.069244613,0.103415603,0.137586594,,,,1.17,0.009856468,0.025315313,0.040774159,,,
1.18,0.925107668,0.94778539,0.970463112,,,,1.18,0.071151426,0.105579906,0.140008386,,,,1.18,0.010356033,0.02607906,0.041802088,,,
1.19,0.927056021,0.949278651,0.971501281,,,,1.19,0.073083047,0.107763019,0.14244299,,,,1.19,0.010870316,0.026857459,0.042844603,,,
1.2,0.928939649,0.950718582,0.972497515,,,,1.2,0.075039313,0.109964809,0.144890305,,,,1.2,0.011399493,0.027650613,0.043901733,,,
1.21,0.930761099,0.952107409,0.973453719,,,,1.21,0.077020051,0.11218514,0.147350228,,,,1.21,0.011943735,0.02845862,0.044973505,,,
1.22,0.932522809,0.953447256,0.974371703,,,,1.22,0.079025081,0.114423871,0.14982266,,,,1.22,0.012503211,0.029281577,0.046059944,,,
1.23,0.934227107,0.954740147,0.975253188,,,,1.23,0.081054214,0.116680856,0.152307499,,,,1.23,0.013078084,0.030119579,0.047161074,,,
1.24,0.93587622,0.955988015,0.97609981,,,,1.24,0.083107251,0.118955948,0.154804644,,,,1.24,0.013668514,0.030972714,0.048276913,,,
1.25,0.937472276,0.9571927,0.976913125,,,,1.25,0.085183986,0.12124899,0.157313994,,,,1.25,0.014274657,0.031841069,0.049407481,,,
1.26,0.939017314,0.958355963,0.977694613,,,,1.26,0.087284203,0.123559825,0.159835448,,,,1.26,0.014896665,0.032724728,0.050552791,,,
1.27,0.940513279,0.959479481,0.978445683,,,,1.27,0.089407676,0.125888291,0.162368906,,,,1.27,0.015534684,0.033623772,0.051712859,,,
1.28,0.941962037,0.960564855,0.979167673,,,,1.28,0.091554171,0.12823422,0.164914269,,,,1.28,0.016188857,0.034538275,0.052887694,,,
1.29,0.943365371,0.961613615,0.979861859,,,,1.29,0.093723447,0.130597441,0.167471435,,,,1.29,0.01685932,0.035468312,0.054077305,,,
1.3,0.944724986,0.96262722,0.980529453,,,,1.3,0.095915251,0.132977778,0.170040305,,,,1.3,0.017546205,0.036413952,0.055281698,,,
1.31,0.946042517,0.963607064,0.98117161,,,,1.31,0.098129322,0.135375052,0.172620782,,,,1.31,0.018249639,0.037375259,0.056500879,,,
1.32,0.947319528,0.964554479,0.98178943,,,,1.32,0.100365391,0.137789078,0.175212765,,,,1.32,0.018969743,0.038352296,0.057734848,,,
1.33,0.948557516,0.965470738,0.98238396,,,,1.33,0.102623179,0.140219669,0.177816159,,,,1.33,0.019706633,0.039345119,0.058983606,,,
1.34,0.949757915,0.966357055,0.982956196,,,,1.34,0.104902399,0.142666631,0.180430864,,,,1.34,0.020460418,0.040353785,0.060247151,,,
1.35,0.950922098,0.967214593,0.983507088,,,,1.35,0.107202754,0.14512977,0.183056786,,,,1.35,0.021231202,0.041378341,0.061525479,,,
1.36,0.952051383,0.968044463,0.984037542,,,,1.36,0.10952394,0.147608884,0.185693828,,,,1.36,0.022019083,0.042418833,0.062818584,,,
1.37,0.953147031,0.968847725,0.984548419,,,,1.37,0.111865643,0.150103769,0.188341896,,,,1.37,0.022824151,0.043475305,0.064126459,,,
1.38,0.954210249,0.969625396,0.985040542,,,,1.38,0.11422754,0.152614218,0.191000895,,,,1.38,0.023646491,0.044547792,0.065449093,,,
1.39,0.955242198,0.970378446,0.985514694,,,,1.39,0.116609302,0.155140018,0.193670734,,,,1.39,0.024486182,0.04563633,0.066786477,,,
1.4,0.956243988,0.971107805,0.985971622,,,,1.4,0.119010588,0.157680953,0.196351319,,,,1.4,0.025343295,0.046740946,0.068138596,,,
1.41,0.957216686,0.971814362,0.986412039,,,,1.41,0.121431052,0.160236806,0.199042559,,,,1.41,0.026217894,0.047861665,0.069505437,,,
1.42,0.958161312,0.972498968,0.986836624,,,,1.42,0.123870339,0.162807352,0.201744364,,,,1.42,0.027110035,0.04899851,0.070886984,,,
1.43,0.959078849,0.973162438,0.987246027,,,,1.43,0.126328084,0.165392365,0.204456646,,,,1.43,0.028019771,0.050151495,0.072283218,,,
1.44,0.959970236,0.973805551,0.987640866,,,,1.44,0.128803916,0.167991616,0.207179316,,,,1.44,0.028947142,0.051320632,0.073694122,,,
1.45,0.960836378,0.974429055,0.988021732,,,,1.45,0.131297456,0.170604872,0.209912288,,,,1.45,0.029892184,0.05250593,0.075119675,,,
1.46,0.961678142,0.975033665,0.988389188,,,,1.46,0.133808319,0.173231897,0.212655474,,,,1.46,0.030854925,0.05370739,0.076559856,,,
1.47,0.962496359,0.975620066,0.988743774,,,,1.47,0.13633611,0.17587245,0.21540879,,,,1.47,0.031835384,0.054925013,0.078014642,,,
1.48,0.96329183,0.976188917,0.989086003,,,,1.48,0.138880429,0.178526291,0.218172153,,,,1.48,0.032833574,0.056158792,0.07948401,,,
1.49,0.964065324,0.976740846,0.989416368,,,,1.49,0.141440867,0.181193173,0.220945478,,,,1.49,0.033849498,0.057408716,0.080967934,,,
1.5,0.964817577,0.977276457,0.989735337,,,,1.5,0.144017012,0.183872848,0.223728685,,,,1.5,0.034883153,0.058674772,0.08246639,,,
1.51,0.965549299,0.977796329,0.990043359,,,,1.51,0.146608441,0.186565066,0.22652169,,,,1.51,0.035934527,0.059956938,0.08397935,,,
1.52,0.966261173,0.978301018,0.990340863,,,,1.52,0.149214728,0.189269572,0.229324415,,,,1.52,0.037003598,0.061255193,0.085506788,,,
1.53,0.966953852,0.978791056,0.990628259,,,,1.53,0.151835441,0.19198611,0.232136779,,,,1.53,0.038090339,0.062569507,0.087048675,,,
1.54,0.967627968,0.979266954,0.990905939,,,,1.54,0.154470142,0.194714423,0.234958704,,,,1.54,0.039194712,0.063899847,0.088604982,,,
1.55,0.968284127,0.979729203,0.991174279,,,,1.55,0.157118386,0.197454248,0.237790109,,,,1.55,0.040316673,0.065246177,0.09017568,,,
1.56,0.968922911,0.980178274,0.991433636,,,,1.56,0.159779726,0.200205323,0.240630919,,,,1.56,0.041456166,0.066608453,0.091760739,,,
