D1,,,,parameters of the mean fragility,,,D2,,,,parameters of the mean fragility,,
flow depth [m],mean-1sigma fragility,mean fragility,mean+1sigma fragility,median,logarithmic standard deviation,epistemic uncertainty,flow depth [m],mean-1sigma fragility,mean fragility,mean+1sigma fragility,median,logarithmic standard deviation,epistemic uncertainty
0.000001,0,8.53824E-06,0.000216225,0.386264704,0.439767605,0.198718969,0.000001,0,2.40438E-18,1.05709E-16,1.602857325,0.310411733,0.114684544
0.01,0,0.002540397,0.028972967,,,,0.01,0,1.42776E-08,4.15391E-07,,,
0.02,0,0.0042715,0.039576288,,,,0.02,0,9.27058E-08,2.22546E-06,,,
0.03,0,0.006050484,0.048237952,,,,0.03,0,2.92375E-07,6.13989E-06,,,
0.04,0,0.007995158,0.056153658,,,,0.04,0,6.81755E-07,1.29666E-05,,,
0.05,0,0.010171103,0.063838205,,,,0.05,0,1.34247E-06,2.36227E-05,,,
0.06,0,0.012628431,0.071580762,,,,0.06,0,2.37018E-06,3.90896E-05,,,
0.07,0,0.015412118,0.079567022,,,,0.07,0,3.87554E-06,6.03746E-05,,,
0.08,0,0.018566021,0.087928918,,,,0.08,0,5.98521E-06,8.84867E-05,,,
0.09,0,0.022134681,0.096768678,,,,0.09,0,8.84302E-06,0.000124428,,,
0.1,0,0.026164159,0.106171456,,,,0.1,0,1.26112E-05,0.000169192,,,
0.11,0,0.030702381,0.116212249,,,,0.11,0,1.7472E-05,0.000223778,,,
0.12,0,0.035799178,0.126959703,,,,0.12,0,2.36288E-05,0.000289201,,,
0.13,0,0.041506114,0.138477961,,,,0.13,0,3.13082E-05,0.000366507,,,
0.14,0,0.047876153,0.15082702,,,,0.14,0,4.07616E-05,0.000456795,,,
0.15,0,0.054963252,0.164061873,,,,0.15,0,5.22668E-05,0.000561231,,,
0.16,0,0.062821899,0.178230895,,,,0.16,0,6.61305E-05,0.000681055,,,
0.17,0,0.07150665,0.193374142,,,,0.17,0,8.26898E-05,0.000817588,,,
0.18,0,0.081071606,0.209522243,,,,0.18,0,0.000102314,0.000972228,,,
0.19,0,0.091569768,0.226696128,,,,0.19,0,0.000125407,0.001146433,,,
0.2,0,0.103052159,0.244907278,,,,0.2,0,0.000152408,0.001341703,,,
0.21,0,0.115566675,0.264157809,,,,0.21,0,0.000183794,0.001559556,,,
0.22,0,0.129156646,0.284439819,,,,0.22,0,0.00022008,0.001801503,,,
0.23,0,0.143859182,0.305733879,,,,0.23,0,0.000261823,0.002069039,,,
0.24,0,0.159703383,0.32800694,,,,0.24,0,0.000309618,0.00236363,,,
0.25,0.002206766,0.176708493,0.35121022,,,,0.25,0,0.000364098,0.002686721,,,
0.26,0.014486422,0.194882052,0.375277682,,,,0.26,0,0.00042593,0.003039737,,,
0.27,0.028310505,0.214218046,0.400125586,,,,0.27,0,0.000495805,0.003424088,,,
0.28,0.043736667,0.234695025,0.425653383,,,,0.28,0,0.000574429,0.003841154,,,
0.29,0.06080248,0.25627415,0.451745819,,,,0.29,0,0.000662506,0.004292265,,,
0.3,0.079518652,0.278897192,0.478275732,,,,0.3,0,0.000760722,0.004778645,,,
0.31,0.099862722,0.302484689,0.505106656,,,,0.31,0,0.000869732,0.00530136,,,
0.32,0.121775141,0.32693468,0.532094218,,,,0.32,0,0.000990148,0.005861246,,,
0.33,0.145159502,0.352122695,0.559085887,,,,0.33,0,0.001122526,0.006458853,,,
0.34,0.169887238,0.377903639,0.58592004,,,,0.34,0,0.001267369,0.007094387,,,
0.35,0.195804899,0.404115761,0.612426623,,,,0.35,0,0.00142511,0.007767673,,,
0.36,0.222741146,0.430586241,0.638431337,,,,0.36,0,0.001596122,0.008478134,,,
0.37,0.250511407,0.457137463,0.663763518,,,,0.37,0,0.001780707,0.009224801,,,
0.38,0.278919877,0.483592986,0.688266096,,,,0.38,0,0.001979104,0.01000636,,,
0.39,0.30776025,0.509782593,0.711804936,,,,0.39,0,0.002191491,0.010821232,,,
0.4,0.3368175,0.535546258,0.734275015,,,,0.4,0,0.002417991,0.011667662,,,
0.41,0.365872309,0.560737269,0.755602229,,,,0.41,0,0.002658679,0.01254381,,,
0.42,0.394708005,0.585224783,0.775741562,,,,0.42,0,0.002913585,0.013447816,,,
0.43,0.423118538,0.608895907,0.794673276,,,,0.43,0,0.003182706,0.014377852,,,
0.44,0.450916004,0.631657234,0.812398465,,,,0.44,0,0.003466019,0.015332143,,,
0.45,0.477936857,0.653435706,0.828934556,,,,0.45,0,0.003763497,0.016309008,,,
0.46,0.504046395,0.674178728,0.84431106,,,,0.46,0,0.004075131,0.017306895,,,
0.47,0.529141163,0.693853527,0.858565891,,,,0.47,0,0.004400949,0.01832443,,,
0.48,0.553149045,0.712445826,0.871742606,,,,0.48,0,0.004741033,0.019360469,,,
0.49,0.576027136,0.729957916,0.883888696,,,,0.49,0,0.005095533,0.020414144,,,
0.5,0.597757929,0.746406304,0.895054678,,,,0.5,0,0.005464676,0.0214849,,,
0.51,0.618344628,0.761819118,0.905293608,,,,0.51,0,0.005848769,0.022572516,,,
0.52,0.637806369,0.776233497,0.914660625,,,,0.52,0,0.006248201,0.023677096,,,
0.53,0.656173908,0.789693117,0.923212327,,,,0.53,0,0.00666344,0.024799064,,,
0.54,0.673486037,0.802246002,0.931005967,,,,0.54,0,0.007095026,0.025939124,,,
0.55,0.689786789,0.813942663,0.938098538,,,,0.55,0,0.007543572,0.027098233,,,
0.56,0.705123326,0.824834599,0.944545872,,,,0.56,0,0.008009751,0.028277552,,,
0.57,0.719544395,0.834973118,0.950401842,,,,0.57,0,0.008494298,0.029478413,,,
0.58,0.733099198,0.844408466,0.955717733,,,,0.58,0,0.008998002,0.030702281,,,
0.59,0.74583658,0.853189187,0.960541793,,,,0.59,0,0.009521704,0.031950722,,,
0.6,0.757804431,0.861361699,0.964918968,,,,0.6,0,0.010066294,0.033225381,,,
0.61,0.769049256,0.86897002,0.968890784,,,,0.61,0,0.01063271,0.034527957,,,
0.62,0.779615856,0.876055612,0.972495369,,,,0.62,0,0.011221935,0.035860195,,,
0.63,0.789547114,0.882657329,0.975767544,,,,0.63,0,0.011835001,0.037223872,,,
0.64,0.798883844,0.888811421,0.978738998,,,,0.64,0,0.012472982,0.038620789,,,
0.65,0.807664706,0.894551593,0.981438479,,,,0.65,0,0.013137001,0.040052771,,,
0.66,0.815926173,0.899909097,0.98389202,,,,0.66,0,0.013828228,0.041521662,,,
0.67,0.823702538,0.904912845,0.986123152,,,,0.67,0,0.014547878,0.043029325,,,
0.68,0.831025947,0.909589538,0.988153129,,,,0.68,0,0.01529722,0.044577644,,,
0.69,0.837926472,0.913963799,0.990001126,,,,0.69,0,0.016077569,0.046168525,,,
0.7,0.844432182,0.918058311,0.991684439,,,,0.7,0,0.016890296,0.047803897,,,
0.71,0.850569248,0.921893955,0.993218661,,,,0.71,0,0.017736823,0.049485714,,,
0.72,0.856362035,0.92548994,0.994617846,,,,0.72,0,0.018618629,0.051215959,,,
0.73,0.861833215,0.928863936,0.995894657,,,,0.73,0,0.019537249,0.052996645,,,
0.74,0.867003866,0.932032186,0.997060506,,,,0.74,0,0.02049428,0.054829816,,,
0.75,0.871893584,0.935009631,0.998125678,,,,0.75,0,0.021491378,0.056717552,,,
0.76,0.876520575,0.937810007,0.999099439,,,,0.76,0,0.022530262,0.058661967,,,
0.77,0.880901758,0.94044595,0.999990142,,,,0.77,0,0.023612719,0.060665216,,,
0.78,0.885052857,0.942929088,1,,,,0.78,0,0.024740601,0.062729492,,,
0.79,0.888988482,0.94527012,1,,,,0.79,0,0.025915832,0.064857031,,,
0.8,0.892722215,0.947478903,1,,,,0.8,0,0.027140406,0.067050111,,,
0.81,0.896266683,0.949564516,1,,,,0.81,0,0.02841639,0.069311056,,,
0.82,0.89963363,0.951535328,1,,,,0.82,0,0.02974593,0.071642237,,,
0.83,0.902833979,0.953399058,1,,,,0.83,0,0.031131249,0.074046071,,,
0.84,0.905877897,0.955162834,1,,,,0.84,0,0.032574648,0.076525025,,,
0.85,0.908774848,0.956833233,1,,,,0.85,0,0.034078513,0.079081616,,,
0.86,0.911533645,0.95841634,1,,,,0.86,0,0.035645312,0.081718414,,,
0.87,0.914162499,0.959917776,1,,,,0.87,0,0.037277598,0.08443804,,,
0.88,0.916669064,0.961342746,1,,,,0.88,0,0.038978014,0.08724317,,,
0.89,0.919060475,0.962696071,1,,,,0.89,0,0.040749288,0.090136534,,,
0.9,0.921343389,0.963982218,1,,,,0.9,0,0.04259424,0.093120918,,,
0.91,0.923524018,0.965205327,1,,,,0.91,0,0.04451578,0.096199165,,,
0.92,0.925608163,0.966369245,1,,,,0.92,0,0.046516908,0.099374176,,,
0.93,0.927601242,0.967477541,1,,,,0.93,0,0.048600717,0.102648909,,,
0.94,0.929508319,0.968533534,1,,,,0.94,0,0.050770392,0.106026381,,,
0.95,0.931334131,0.96954031,1,,,,0.95,0,0.053029207,0.109509668,,,
0.96,0.933083107,0.970500741,1,,,,0.96,0,0.055380529,0.113101903,,,
0.97,0.934759393,0.971417503,1,,,,0.97,0,0.05782781,0.116806277,,,
0.98,0.936366875,0.972293089,1,,,,0.98,0.000123143,0.060374592,0.120626041,,,
0.99,0.93790919,0.973129825,1,,,,0.99,0.001484501,0.063024499,0.124564497,,,
1,0.93938975,0.973929881,1,,,,1,0.00293747,0.065781237,0.128625005,,,
1.01,0.940811756,0.974695286,1,,,,1.01,0.004486202,0.068648588,0.132810973,,,
1.02,0.94217821,0.975427933,1,,,,1.02,0.006134947,0.071630404,0.137125862,,,
1.03,0.943491933,0.976129594,1,,,,1.03,0.007888038,0.074730605,0.141573172,,,
1.04,0.944755576,0.976801928,1,,,,1.04,0.009749887,0.077953167,0.146156448,,,
1.05,0.945971628,0.977446489,1,,,,1.05,0.01172497,0.081302118,0.150879266,,,
1.06,0.947142433,0.97806473,1,,,,1.06,0.013817819,0.084781527,0.155745235,,,
1.07,0.948270195,0.978658017,1,,,,1.07,0.016033003,0.088395493,0.160757982,,,
1.08,0.949356992,0.979227631,1,,,,1.08,0.018375116,0.092148133,0.16592115,,,
1.09,0.950404778,0.979774773,1,,,,1.09,0.020848757,0.096043571,0.171238385,,,
1.1,0.951415399,0.980300572,1,,,,1.1,0.023458512,0.100085921,0.17671333,,,
1.11,0.952390591,0.98080609,1,,,,1.11,0.02620893,0.10427927,0.182349611,,,
1.12,0.953331997,0.981292326,1,,,,1.12,0.029104499,0.108627662,0.188150826,,,
1.13,0.954241165,0.98176022,1,,,,1.13,0.032149622,0.113135076,0.194120531,,,
1.14,0.955119559,0.982210656,1,,,,1.14,0.035348583,0.117805406,0.200262228,,,
1.15,0.955968562,0.982644468,1,,,,1.15,0.038705522,0.122642434,0.206579347,,,
1.16,0.956789481,0.983062442,1,,,,1.16,0.042224394,0.127649811,0.213075228,,,
1.17,0.957583553,0.983465319,1,,,,1.17,0.045908937,0.132831022,0.219753107,,,
1.18,0.95835195,0.983853801,1,,,,1.18,0.049762633,0.138189361,0.226616089,,,
1.19,0.95909578,0.984228546,1,,,,1.19,0.053788668,0.143727899,0.233667131,,,
1.2,0.959816095,0.984590181,1,,,,1.2,0.057989889,0.149449453,0.240909016,,,
1.21,0.96051389,0.984939295,1,,,,1.21,0.062368762,0.155356545,0.248344329,,,
1.22,0.961190111,0.985276446,1,,,,1.22,0.066927324,0.161451374,0.255975425,,,
1.23,0.961845652,0.985602163,1,,,,1.23,0.071667143,0.167735774,0.263804405,,,
1.24,0.962481366,0.985916946,1,,,,1.24,0.076589269,0.174211176,0.271833082,,,
1.25,0.96309806,0.98622127,1,,,,1.25,0.081694188,0.180878567,0.280062946,,,
1.26,0.963696503,0.986515582,1,,,,1.26,0.086981779,0.187738457,0.288495136,,,
1.27,0.964277423,0.986800309,1,,,,1.27,0.092451268,0.194790831,0.297130394,,,
1.28,0.964841516,0.987075855,1,,,,1.28,0.098101192,0.202035116,0.30596904,,,
1.29,0.965389441,0.987342603,1,,,,1.29,0.103929353,0.209470138,0.315010922,,,
1.3,0.965921828,0.987600918,1,,,,1.3,0.109932794,0.217094089,0.324255384,,,
1.31,0.966439275,0.987851144,1,,,,1.31,0.116107763,0.224904491,0.333701219,,,
1.32,0.966942351,0.988093611,1,,,,1.32,0.122449703,0.232898166,0.343346629,,,
1.33,0.967431602,0.988328632,1,,,,1.33,0.128953239,0.241071206,0.353189173,,,
1.34,0.967907544,0.988556503,1,,,,1.34,0.135612187,0.249418952,0.363225717,,,
1.35,0.968370672,0.988777507,1,,,,1.35,0.142419573,0.257935976,0.373452379,,,
1.36,0.968821459,0.988991914,1,,,,1.36,0.149367675,0.266616071,0.383864468,,,
1.37,0.969260353,0.98919998,1,,,,1.37,0.156448082,0.275452249,0.394456415,,,
1.38,0.969687785,0.98940195,1,,,,1.38,0.163651778,0.284436745,0.405221711,,,
1.39,0.970104166,0.989598056,1,,,,1.39,0.170969239,0.293561034,0.41615283,,,
1.4,0.970509888,0.989788521,1,,,,1.4,0.178390554,0.30281586,0.427241166,,,
1.41,0.970905327,0.989973556,1,,,,1.41,0.185905562,0.312191266,0.438476971,,,
1.42,0.971290841,0.990153364,1,,,,1.42,0.193503993,0.321676651,0.44984931,,,
1.43,0.971666774,0.990328138,1,,,,1.43,0.201175616,0.331260825,0.461346035,,,
1.44,0.972033455,0.990498062,1,,,,1.44,0.208910374,0.34093208,0.472953785,,,
1.45,0.972391197,0.990663312,1,,,,1.45,0.216698516,0.350678269,0.484658022,,,
1.46,0.972740304,0.990824058,1,,,,1.46,0.224530693,0.360486898,0.496443102,,,
1.47,0.973081062,0.990980459,1,,,,1.47,0.232398045,0.370345216,0.508292387,,,
1.48,0.97341375,0.991132669,1,,,,1.48,0.240292239,0.380240316,0.520188392,,,
1.49,0.973738632,0.991280837,1,,,,1.49,0.248205493,0.390159233,0.532112973,,,
1.5,0.974055963,0.991425103,1,,,,1.5,0.256130562,0.400089045,0.544047527,,,
1.51,0.974365987,0.991565602,1,,,,1.51,0.264060705,0.410016967,0.555973229,,,
1.52,0.974668938,0.991702464,1,,,,1.52,0.271989634,0.419930443,0.567871252,,,
1.53,0.974965041,0.991835812,1,,,,1.53,0.279911456,0.42981723,0.579723005,,,
1.54,0.975254513,0.991965764,1,,,,1.54,0.28782061,0.439665474,0.591510337,,,
1.55,0.97553756,0.992092436,1,,,,1.55,0.295711813,0.449463773,0.603215733,,,
1.56,0.975814382,0.992215936,1,,,,1.56,0.303580007,0.459201239,0.614822471,,,
1.57,0.976085171,0.992336368,1,,,,1.57,0.311420333,0.468867544,0.626314755,,,
1.58,0.97635011,0.992453833,1,,,,1.58,0.319228101,0.478452957,0.637677812,,,
1.59,0.976609377,0.992568429,1,,,,1.59,0.326998782,0.487948373,0.648897965,,,
1.6,0.976863143,0.992680246,1,,,,1.6,0.33472801,0.497345339,0.659962667,,,
1.61,0.977111571,0.992789375,1,,,,1.61,0.342411589,0.50663606,0.67086053,,,
1.62,0.97735482,0.9928959,1,,,,1.62,0.350045501,0.515813411,0.68158132,,,
1.63,0.977593041,0.992999904,1,,,,1.63,0.357625921,0.524870934,0.692115948,,,
1.64,0.97782638,0.993101467,1,,,,1.64,0.365149228,0.533802835,0.702456443,,,
1.65,0.978054979,0.993200662,1,,,,1.65,0.372612014,0.54260397,0.712595925,,,
1.66,0.978278975,0.993297565,1,,,,1.66,0.380011088,0.551269827,0.722528566,,,
1.67,0.978498496,0.993392245,1,,,,1.67,0.387343482,0.559796513,0.732249545,,,
1.68,0.978713671,0.993484769,1,,,,1.68,0.394606444,0.568180725,0.741755005,,,
1.69,0.978924621,0.993575203,1,,,,1.69,0.401797441,0.576419722,0.751042002,,,
1.7,0.979131463,0.99366361,1,,,,1.7,0.408914149,0.584511301,0.760108453,,,
1.71,0.979334311,0.99375005,1,,,,1.71,0.415954452,0.592453764,0.768953076,,,
1.72,0.979533274,0.99383458,1,,,,1.72,0.422916432,0.600245886,0.77757534,,,
1.73,0.979728458,0.993917258,1,,,,1.73,0.429798365,0.607886882,0.785975399,,,
1.74,0.979919965,0.993998136,1,,,,1.74,0.436598712,0.615376374,0.794154036,,,
1.75,0.980107894,0.994077268,1,,,,1.75,0.443316119,0.622714363,0.802112608,,,
1.76,0.980292339,0.994154703,1,,,,1.76,0.449949404,0.629901191,0.809852978,,,
1.77,0.980473392,0.99423049,1,,,,1.77,0.456497557,0.636937514,0.81737747,,,
1.78,0.980651143,0.994304676,1,,,,1.78,0.462959732,0.643824269,0.824688807,,,
1.79,0.980825678,0.994377305,1,,,,1.79,0.469335239,0.650562653,0.831790066,,,
1.8,0.980997078,0.994448422,1,,,,1.8,0.475623543,0.657154084,0.838684626,,,
1.81,0.981165426,0.994518068,1,,,,1.81,0.481824254,0.663600189,0.845376123,,,
1.82,0.981330799,0.994586284,1,,,,1.82,0.487937122,0.669902768,0.851868414,,,
1.83,0.981493272,0.994653109,1,,,,1.83,0.493962029,0.67606378,0.858165532,,,
1.84,0.981652917,0.994718581,1,,,,1.84,0.499898982,0.68208532,0.864271658,,,
1.85,0.981809806,0.994782737,1,,,,1.85,0.505748109,0.687969597,0.870191085,,,
1.86,0.981964006,0.994845611,1,,,,1.86,0.511509646,0.693718919,0.875928192,,,
1.87,0.982115584,0.99490724,1,,,,1.87,0.517183934,0.699335677,0.881487421,,,
1.88,0.982264604,0.994967654,1,,,,1.88,0.522771413,0.70482233,0.886873247,,,
1.89,0.982411127,0.995026887,1,,,,1.89,0.528272607,0.710181387,0.892090167,,,
1.9,0.982555215,0.995084969,1,,,,1.9,0.533688126,0.715415401,0.897142676,,,
1.91,0.982696924,0.995141931,1,,,,1.91,0.539018655,0.720526955,0.902035256,,,
1.92,0.982836313,0.995197801,1,,,,1.92,0.544264944,0.725518651,0.906772358,,,
1.93,0.982973435,0.995252608,1,,,,1.93,0.549427808,0.7303931,0.911358392,,,
1.94,0.983108343,0.995306378,1,,,,1.94,0.554508117,0.735152917,0.915797718,,,
1.95,0.98324109,0.995359138,1,,,,1.95,0.559506788,0.739800712,0.920094636,,,
1.96,0.983371725,0.995410913,1,,,,1.96,0.564424787,0.744339083,0.924253379,,,
1.97,0.983500296,0.995461728,1,,,,1.97,0.569263112,0.748770609,0.928278106,,,
1.98,0.983626852,0.995511608,1,,,,1.98,0.574022801,0.753097849,0.932172897,,,
1.99,0.983751437,0.995560575,1,,,,1.99,0.578704917,0.757323333,0.935941748,,,
2,0.983874096,0.995608651,1,,,,2,0.583310549,0.761449559,0.93958857,,,
2.01,0.983994872,0.995655859,1,,,,2.01,0.587840805,0.765478994,0.943117184,,,
2.02,0.984113807,0.99570222,1,,,,2.02,0.592296812,0.769414065,0.946531318,,,
2.03,0.984230942,0.995747753,1,,,,2.03,0.596679708,0.773257159,0.949834611,,,
2.04,0.984346315,0.99579248,1,,,,2.04,0.600990642,0.777010623,0.953030604,,,
2.05,0.984459967,0.995836419,1,,,,2.05,0.605230769,0.780676758,0.956122746,,,
2.06,0.984571933,0.995879589,1,,,,2.06,0.60940125,0.78425782,0.959114391,,,
2.07,0.984682251,0.995922008,1,,,,2.07,0.613503246,0.787756022,0.962008799,,,
2.08,0.984790955,0.995963694,1,,,,2.08,0.617537918,0.791173527,0.964809136,,,
2.09,0.98489808,0.996004664,1,,,,2.09,0.621506424,0.79451245,0.967518476,,,
2.1,0.985003659,0.996044934,1,,,,2.1,0.625409919,0.79777486,0.970139801,,,
2.11,0.985107725,0.996084522,1,,,,2.11,0.62924955,0.800962777,0.972676004,,,
2.12,0.985210309,0.996123441,1,,,,2.12,0.633026458,0.804078173,0.975129887,,,
2.13,0.985311443,0.996161708,1,,,,2.13,0.636741773,0.80712297,0.977504167,,,
2.14,0.985411155,0.996199338,1,,,,2.14,0.640396617,0.810099045,0.979801473,,,
2.15,0.985509475,0.996236344,1,,,,2.15,0.6439921,0.813008226,0.982024352,,,
2.16,0.985606432,0.996272741,1,,,,2.16,0.647529318,0.815852293,0.984175268,,,
2.17,0.985702053,0.996308542,1,,,,2.17,0.651009356,0.818632981,0.986256606,,,
2.18,0.985796365,0.996343761,1,,,,2.18,0.654433285,0.821351979,0.988270673,,,
2.19,0.985889394,0.99637841,1,,,,2.19,0.657802161,0.82401093,0.990219699,,,
2.2,0.985981166,0.996412503,1,,,,2.2,0.661117026,0.826611433,0.992105841,,,
2.21,0.986071705,0.99644605,1,,,,2.21,0.664378904,0.829155044,0.993931183,,,
2.22,0.986161036,0.996479064,1,,,,2.22,0.667588808,0.831643274,0.99569774,,,
2.23,0.986249182,0.996511557,1,,,,2.23,0.670747729,0.834077594,0.997407459,,,
2.24,0.986336167,0.996543539,1,,,,2.24,0.673856648,0.836459434,0.99906222,,,
2.25,0.986422013,0.996575021,1,,,,2.25,0.676916524,0.838790182,1,,,
2.26,0.986506741,0.996606015,1,,,,2.26,0.679928303,0.84107119,1,,,
2.27,0.986590374,0.99663653,1,,,,2.27,0.682892913,0.843303767,1,,,
2.28,0.986672931,0.996666577,1,,,,2.28,0.685811266,0.845489189,1,,,
2.29,0.986754433,0.996696165,1,,,,2.29,0.688684256,0.847628693,1,,,
2.3,0.986834901,0.996725303,1,,,,2.3,0.691512761,0.849723482,1,,,
2.31,0.986914352,0.996754002,1,,,,2.31,0.694297642,0.851774722,1,,,
2.32,0.986992807,0.996782269,1,,,,2.32,0.697039746,0.853783548,1,,,
2.33,0.987070283,0.996810115,1,,,,2.33,0.699739899,0.855751061,1,,,
2.34,0.987146798,0.996837547,1,,,,2.34,0.702398914,0.85767833,1,,,
2.35,0.987222371,0.996864574,1,,,,2.35,0.705017587,0.859566394,1,,,
2.36,0.987297018,0.996891205,1,,,,2.36,0.707596699,0.861416259,1,,,
2.37,0.987370755,0.996917446,1,,,,2.37,0.710137012,0.863228906,1,,,
2.38,0.987443599,0.996943306,1,,,,2.38,0.712639277,0.865005284,1,,,
2.39,0.987515567,0.996968792,1,,,,2.39,0.715104226,0.866746317,1,,,
2.4,0.987586673,0.996993912,1,,,,2.4,0.717532577,0.8684529,1,,,
2.41,0.987656933,0.997018673,1,,,,2.41,0.719925034,0.870125903,1,,,
2.42,0.987726361,0.997043082,1,,,,2.42,0.722282285,0.871766171,1,,,
2.43,0.987794973,0.997067145,1,,,,2.43,0.724605004,0.873374525,1,,,
2.44,0.987862782,0.99709087,1,,,,2.44,0.726893851,0.874951761,1,,,
2.45,0.987929802,0.997114263,1,,,,2.45,0.729149471,0.876498652,1,,,
2.46,0.987996047,0.997137331,1,,,,2.46,0.731372497,0.87801595,1,,,
2.47,0.98806153,0.997160078,1,,,,2.47,0.733563548,0.879504385,1,,,
2.48,0.988126264,0.997182513,1,,,,2.48,0.735723227,0.880964664,1,,,
2.49,0.988190262,0.99720464,1,,,,2.49,0.737852129,0.882397477,1,,,
2.5,0.988253536,0.997226465,1,,,,2.5,0.739950833,0.883803492,1,,,
2.51,0.988316098,0.997247994,1,,,,2.51,0.742019906,0.885183358,1,,,
2.52,0.98837796,0.997269232,1,,,,2.52,0.744059903,0.886537706,1,,,
2.53,0.988439133,0.997290186,1,,,,2.53,0.746071366,0.88786715,1,,,
2.54,0.98849963,0.997310859,1,,,,2.54,0.748054828,0.889172285,1,,,
2.55,0.98855946,0.997331258,1,,,,2.55,0.750010809,0.890453689,1,,,
2.56,0.988618636,0.997351386,1,,,,2.56,0.751939816,0.891711926,1,,,
2.57,0.988677167,0.99737125,1,,,,2.57,0.753842348,0.892947541,1,,,
2.58,0.988735064,0.997390854,1,,,,2.58,0.755718891,0.894161067,1,,,
2.59,0.988792337,0.997410202,1,,,,2.59,0.757569922,0.895353019,1,,,
2.6,0.988848996,0.9974293,1,,,,2.6,0.759395908,0.8965239,1,,,
2.61,0.988905051,0.997448151,1,,,,2.61,0.761197303,0.897674198,1,,,
2.62,0.988960512,0.99746676,1,,,,2.62,0.762974554,0.898804387,1,,,
2.63,0.989015387,0.997485131,1,,,,2.63,0.764728098,0.899914929,1,,,
