D1,,,,parameters of the mean fragility,,
flow depth [m],mean-1sigma fragility,mean fragility,mean+1sigma fragility,median,logarithmic standard deviation,epistemic uncertainty
0.000001,0,0.000547378,0.002046881,1.257765694,1.443641854,0.219402769
0.01,0,0.028507068,0.067818621,,,
0.02,0,0.040624739,0.090585267,,,
0.03,0,0.05035858,0.107624108,,,
0.04,0,0.058874398,0.121801943,,,
0.05,0,0.066617465,0.134189581,,,
0.06,0.002304682,0.073814133,0.145323585,,,
0.07,0.005678668,0.08059798,0.155517292,,,
0.08,0.009139006,0.087055568,0.16497213,,,
0.09,0.01266701,0.093246742,0.173826475,,,
0.1,0.016249639,0.099214895,0.182180151,,,
0.11,0.019877387,0.104992655,0.190107923,,,
0.12,0.023543085,0.110605281,0.197667477,,,
0.13,0.027241164,0.116072789,0.204904414,,,
0.14,0.030967196,0.121411353,0.21185551,,,
0.15,0.034717585,0.126634259,0.218550932,,,
0.16,0.038489359,0.131752573,0.225015788,,,
0.17,0.04228002,0.136775627,0.231271234,,,
0.18,0.046087443,0.14171137,0.237335297,,,
0.19,0.049909796,0.146566642,0.243223487,,,
0.2,0.053745482,0.15134737,0.248949257,,,
0.21,0.057593092,0.156058734,0.254524376,,,
0.22,0.061451378,0.160705289,0.2599592,,,
0.23,0.065319219,0.165291064,0.265262909,,,
0.24,0.069195602,0.16981964,0.270443679,,,
0.25,0.07307961,0.174294222,0.275508835,,,
0.26,0.0769704,0.178717684,0.280464969,,,
0.27,0.080867199,0.183092619,0.285318039,,,
0.28,0.084769289,0.187421372,0.290073454,,,
0.29,0.088676006,0.191706074,0.294736142,,,
0.3,0.092586726,0.195948666,0.299310606,,,
0.31,0.096500867,0.200150924,0.30380098,,,
0.32,0.100417879,0.204314472,0.308211065,,,
0.33,0.104337243,0.208440807,0.312544371,,,
0.34,0.108258466,0.212531304,0.316804143,,,
0.35,0.11218108,0.216587237,0.320993393,,,
0.36,0.116104639,0.220609781,0.325114923,,,
0.37,0.120028715,0.224600028,0.329171341,,,
0.38,0.123952899,0.228558993,0.333165086,,,
0.39,0.127876798,0.232487619,0.33709844,,,
0.4,0.131800032,0.236386787,0.340973543,,,
0.41,0.135722235,0.24025732,0.344792405,,,
0.42,0.139643056,0.244099988,0.34855692,,,
0.43,0.14356215,0.247915511,0.352268872,,,
0.44,0.147479187,0.251704567,0.355929947,,,
0.45,0.151393843,0.25546779,0.359541738,,,
0.46,0.155305806,0.259205781,0.363105756,,,
0.47,0.159214769,0.262919101,0.366623434,,,
0.48,0.163120435,0.266608284,0.370096133,,,
0.49,0.167022513,0.27027383,0.373525148,,,
0.5,0.170920719,0.273916216,0.376911713,,,
0.51,0.174814774,0.277535889,0.380257004,,,
0.52,0.178704407,0.281133276,0.383562146,,,
0.53,0.182589349,0.28470878,0.386828212,,,
0.54,0.18646934,0.288262785,0.39005623,,,
0.55,0.190344122,0.291795654,0.393247186,,,
0.56,0.194213441,0.295307733,0.396402025,,,
0.57,0.198077051,0.298799353,0.399521655,,,
0.58,0.201934705,0.302270826,0.402606948,,,
0.59,0.205786164,0.305722453,0.405658743,,,
0.6,0.209631189,0.309154519,0.408677849,,,
0.61,0.213469547,0.312567296,0.411665045,,,
0.62,0.217301007,0.315961046,0.414621084,,,
0.63,0.221125341,0.319336017,0.417546693,,,
0.64,0.224942324,0.322692448,0.420442572,,,
0.65,0.228751734,0.326030568,0.423309403,,,
0.66,0.23255335,0.329350596,0.426147842,,,
0.67,0.236346956,0.332652742,0.428958528,,,
0.68,0.240132336,0.335937208,0.431742079,,,
0.69,0.243909278,0.339204186,0.434499095,,,
0.7,0.24767757,0.342453865,0.43723016,,,
0.71,0.251437003,0.345686422,0.439935841,,,
0.72,0.25518737,0.34890203,0.44261669,,,
0.73,0.258928465,0.352100855,0.445273244,,,
0.74,0.262660086,0.355283056,0.447906027,,,
0.75,0.266382029,0.358448789,0.450515549,,,
0.76,0.270094093,0.361598201,0.453102308,,,
0.77,0.273796079,0.364731436,0.455666792,,,
0.78,0.27748779,0.367848633,0.458209476,,,
0.79,0.281169027,0.370949926,0.460730825,,,
0.8,0.284839595,0.374035444,0.463231294,,,
0.81,0.288499298,0.377105314,0.465711329,,,
0.82,0.292147945,0.380159655,0.468171366,,,
0.83,0.29578534,0.383198587,0.470611834,,,
0.84,0.299411292,0.386222223,0.473033153,,,
0.85,0.30302561,0.389230673,0.475435736,,,
0.86,0.306628103,0.392224045,0.477819987,,,
0.87,0.31021858,0.395202443,0.480186306,,,
0.88,0.313796853,0.398165968,0.482535083,,,
0.89,0.317362733,0.401114719,0.484866706,,,
0.9,0.32091603,0.404048792,0.487181554,,,
0.91,0.324456557,0.406968279,0.48948,,,
0.92,0.327984127,0.409873271,0.491762416,,,
0.93,0.33149855,0.412763857,0.494029163,,,
0.94,0.334999641,0.415640122,0.496280603,,,
0.95,0.338487212,0.418502151,0.49851709,,,
0.96,0.341961077,0.421350025,0.500738974,,,
0.97,0.345421048,0.424183825,0.502946603,,,
0.98,0.348866938,0.427003629,0.50514032,,,
0.99,0.352298561,0.429809513,0.507320464,,,
1,0.35571573,0.432601551,0.509487372,,,
1.01,0.359118258,0.435379817,0.511641376,,,
1.02,0.362505958,0.438144383,0.513782807,,,
1.03,0.365878643,0.440895318,0.515911992,,,
1.04,0.369236125,0.44363269,0.518029255,,,
1.05,0.372578218,0.446356568,0.520134919,,,
1.06,0.375904732,0.449067018,0.522229303,,,
1.07,0.379215481,0.451764103,0.524312725,,,
1.08,0.382510276,0.454447888,0.5263855,,,
1.09,0.385788929,0.457118435,0.528447941,,,
1.1,0.389051251,0.459775806,0.53050036,,,
1.11,0.392297054,0.46242006,0.532543067,,,
1.12,0.395526148,0.465051258,0.534576368,,,
1.13,0.398738345,0.467669458,0.536600571,,,
1.14,0.401933454,0.470274717,0.538615979,,,
1.15,0.405111287,0.472867091,0.540622896,,,
1.16,0.408271654,0.475446638,0.542621622,,,
1.17,0.411414366,0.478013412,0.544612458,,,
1.18,0.414539234,0.480567467,0.546595701,,,
1.19,0.417646067,0.483108857,0.548571648,,,
1.2,0.420734677,0.485637636,0.550540594,,,
1.21,0.423804876,0.488153854,0.552502833,,,
1.22,0.426856474,0.490657565,0.554458655,,,
1.23,0.429889285,0.493148818,0.556408351,,,
1.24,0.432903122,0.495627665,0.558352208,,,
1.25,0.435897798,0.498094156,0.560290514,,,
1.26,0.438873129,0.50054834,0.562223551,,,
1.27,0.44182893,0.502990266,0.564151601,,,
1.28,0.444765019,0.505419982,0.566074945,,,
1.29,0.447681215,0.507837537,0.567993858,,,
1.3,0.45057734,0.510242978,0.569908615,,,
1.31,0.453453217,0.512636352,0.571819488,,,
1.32,0.45630867,0.515017707,0.573726744,,,
1.33,0.459143528,0.517387088,0.575630648,,,
1.34,0.461957623,0.519744543,0.577531462,,,
1.35,0.464750788,0.522090115,0.579429442,,,
1.36,0.467522861,0.524423852,0.581324842,,,
1.37,0.470273685,0.526745798,0.583217911,,,
1.38,0.473003104,0.529055997,0.585108891,,,
1.39,0.475710969,0.531354496,0.586998022,,,
1.4,0.478397137,0.533641337,0.588885537,,,
1.41,0.481061467,0.535916564,0.590771662,,,
1.42,0.483703826,0.538180223,0.59265662,,,
1.43,0.486324088,0.540432356,0.594540623,,,
1.44,0.488922131,0.542673006,0.596423881,,,
1.45,0.491497842,0.544902217,0.598306592,,,
1.46,0.494051114,0.547120032,0.60018895,,,
1.47,0.496581849,0.549326493,0.602071138,,,
1.48,0.499089956,0.551521644,0.603953331,,,
1.49,0.501575354,0.553705526,0.605835697,,,
1.5,0.50403797,0.555878181,0.607718393,,,
1.51,0.50647774,0.558039653,0.609601566,,,
1.52,0.508894611,0.560189983,0.611485355,,,
1.53,0.511288539,0.562329213,0.613369886,,,
1.54,0.51365949,0.564457384,0.615255277,,,
1.55,0.516007442,0.566574538,0.617141634,,,
1.56,0.518332384,0.568680717,0.61902905,,,
1.57,0.520634314,0.570775962,0.62091761,,,
1.58,0.522913244,0.572860314,0.622807385,,,
1.59,0.525169196,0.574933815,0.624698435,,,
1.6,0.527402204,0.576996506,0.626590808,,,
1.61,0.529612314,0.579048428,0.628484541,,,
1.62,0.531799585,0.581089621,0.630379656,,,
1.63,0.533964085,0.583120126,0.632276167,,,
1.64,0.536105897,0.585139985,0.634174074,,,
1.65,0.538225113,0.587149238,0.636073364,,,
1.66,0.540321839,0.589147926,0.637974013,,,
1.67,0.542396192,0.591136089,0.639875987,,,
1.68,0.544448299,0.593113769,0.641779238,,,
1.69,0.5464783,0.595081004,0.643683708,,,
1.7,0.548486345,0.597037837,0.645589329,,,
1.71,0.550472593,0.598984307,0.64749602,,,
1.72,0.552437216,0.600920454,0.649403692,,,
1.73,0.554380395,0.60284632,0.651312245,,,
1.74,0.556302318,0.604761944,0.65322157,,,
1.75,0.558203185,0.606667367,0.655131548,,,
1.76,0.560083204,0.608562628,0.657042052,,,
1.77,0.56194259,0.610447769,0.658952947,,,
1.78,0.563781565,0.612322828,0.660864091,,,
1.79,0.565600361,0.614187847,0.662775334,,,
1.8,0.567399212,0.616042866,0.66468652,,,
1.81,0.569178363,0.617887924,0.666597485,,,
1.82,0.570938061,0.619723062,0.668508063,,,
1.83,0.572678558,0.621548319,0.670418081,,,
1.84,0.574400111,0.623363736,0.672327361,,,
1.85,0.576102983,0.625169353,0.674235723,,,
1.86,0.577787437,0.62696521,0.676142982,,,
1.87,0.57945374,0.628751346,0.678048951,,,
1.88,0.581102162,0.630527801,0.67995344,,,
1.89,0.582732974,0.632294617,0.681856259,,,
1.9,0.584346449,0.634051831,0.683757214,,,
1.91,0.585942859,0.635799485,0.685656112,,,
1.92,0.587522478,0.637537618,0.687552758,,,
1.93,0.589085581,0.63926627,0.68944696,,,
1.94,0.590632441,0.640985481,0.691338522,,,
1.95,0.592163329,0.642695291,0.693227253,,,
1.96,0.593678519,0.644395739,0.69511296,,,
1.97,0.595178279,0.646086866,0.696995453,,,
1.98,0.596662878,0.647768711,0.698874544,,,
1.99,0.598132582,0.649441313,0.700750045,,,
2,0.599587654,0.651104713,0.702621772,,,
2.01,0.601028357,0.652758951,0.704489545,,,
2.02,0.602454947,0.654404065,0.706353183,,,
2.03,0.603867681,0.656040096,0.708212512,,,
2.04,0.60526681,0.657667084,0.710067358,,,
2.05,0.606652584,0.659285068,0.711917551,,,
2.06,0.608025247,0.660894087,0.713762927,,,
2.07,0.60938504,0.662494181,0.715603322,,,
2.08,0.610732202,0.66408539,0.717438579,,,
2.09,0.612066966,0.665667754,0.719268542,,,
2.1,0.613389562,0.667241312,0.721093061,,,
2.11,0.614700216,0.668806103,0.722911989,,,
2.12,0.61599915,0.670362167,0.724725183,,,
2.13,0.617286582,0.671909543,0.726532505,,,
2.14,0.618562724,0.673448271,0.728333819,,,
2.15,0.619827786,0.674978391,0.730128996,,,
2.16,0.621081973,0.676499941,0.731917909,,,
2.17,0.622325487,0.678012961,0.733700435,,,
2.18,0.623558523,0.67951749,0.735476457,,,
2.19,0.624781275,0.681013568,0.737245861,,,
2.2,0.625993931,0.682501234,0.739008536,,,
2.21,0.627196675,0.683980526,0.740764377,,,
2.22,0.628389689,0.685451485,0.742513281,,,
2.23,0.629573147,0.686914149,0.744255151,,,
2.24,0.630747223,0.688368558,0.745989893,,,
2.25,0.631912084,0.68981475,0.747717415,,,
2.26,0.633067896,0.691252764,0.749437632,,,
2.27,0.634214818,0.69268264,0.751150462,,,
2.28,0.635353009,0.694104416,0.752855824,,,
2.29,0.636482621,0.695518132,0.754553643,,,
2.3,0.637603803,0.696923826,0.756243848,,,
2.31,0.638716703,0.698321536,0.757926369,,,
2.32,0.639821462,0.699711303,0.759601143,,,
2.33,0.64091822,0.701093163,0.761268107,,,
2.34,0.642007112,0.702467157,0.762927202,,,
2.35,0.643088272,0.703833322,0.764578373,,,
2.36,0.644161827,0.705191698,0.766221569,,,
2.37,0.645227905,0.706542322,0.767856739,,,
2.38,0.646286628,0.707885233,0.769483838,,,
2.39,0.647338117,0.70922047,0.771102822,,,
2.4,0.648382488,0.71054807,0.772713652,,,
2.41,0.649419857,0.711868072,0.774316288,,,
2.42,0.650450333,0.713180515,0.775910696,,,
2.43,0.651474027,0.714485435,0.777496843,,,
2.44,0.652491044,0.715782872,0.779074701,,,
2.45,0.653501487,0.717072863,0.78064424,,,
2.46,0.654505458,0.718355447,0.782205436,,,
2.47,0.655503054,0.719630661,0.783758267,,,
2.48,0.656494373,0.720898542,0.785302711,,,
2.49,0.657479507,0.722159129,0.786838751,,,
2.5,0.658458548,0.723412459,0.788366371,,,
2.51,0.659431585,0.72465857,0.789885556,,,
2.52,0.660398705,0.725897499,0.791396294,,,
2.53,0.661359993,0.727129284,0.792898575,,,
2.54,0.662315532,0.728353962,0.794392392,,,
2.55,0.663265403,0.72957157,0.795877738,,,
2.56,0.664209684,0.730782146,0.797354607,,,
2.57,0.665148453,0.731985726,0.798822998,,,
2.58,0.666081784,0.733182347,0.80028291,,,
2.59,0.667009751,0.734372047,0.801734342,,,
2.6,0.667932426,0.735554862,0.803177298,,,
2.61,0.668849879,0.736730829,0.804611779,,,
2.62,0.669762177,0.737899985,0.806037793,,,
2.63,0.670669387,0.739062366,0.807455344,,,
2.64,0.671571575,0.740218008,0.808864441,,,
2.65,0.672468804,0.741366949,0.810265094,,,
2.66,0.673361136,0.742509224,0.811657312,,,
2.67,0.674248631,0.743644869,0.813041107,,,
2.68,0.675131349,0.744773921,0.814416493,,,
2.69,0.676009348,0.745896416,0.815783484,,,
2.7,0.676882684,0.747012389,0.817142095,,,
2.71,0.677751412,0.748121877,0.818492341,,,
2.72,0.678615587,0.749224914,0.819834242,,,
2.73,0.679475261,0.750321538,0.821167814,,,
2.74,0.680330486,0.751411782,0.822493078,,,
2.75,0.681181312,0.752495683,0.823810054,,,
2.76,0.682027789,0.753573275,0.825118762,,,
2.77,0.682869964,0.754644595,0.826419227,,,
2.78,0.683707885,0.755709677,0.827711469,,,
2.79,0.684541597,0.756768556,0.828995514,,,
2.8,0.685371147,0.757821266,0.830271385,,,
2.81,0.686196578,0.758867843,0.831539109,,,
2.82,0.687017934,0.759908322,0.83279871,,,
2.83,0.687835256,0.760942736,0.834050217,,,
2.84,0.688648585,0.761971121,0.835293656,,,
2.85,0.689457964,0.76299351,0.836529056,,,
2.86,0.69026343,0.764009938,0.837756445,,,
2.87,0.691065023,0.765020438,0.838975853,,,
2.88,0.691862781,0.766025045,0.84018731,,,
2.89,0.692656741,0.767023793,0.841390846,,,
2.9,0.693446939,0.768016715,0.842586492,,,
2.91,0.694233411,0.769003845,0.843774279,,,
2.92,0.695016192,0.769985216,0.84495424,,,
2.93,0.695795317,0.770960862,0.846126408,,,
2.94,0.696570819,0.771930816,0.847290814,,,
2.95,0.69734273,0.772895111,0.848447492,,,
2.96,0.698111084,0.773853781,0.849596477,,,
2.97,0.698875911,0.774806857,0.850737802,,,
2.98,0.699637243,0.775754372,0.851871501,,,
2.99,0.70039511,0.77669636,0.85299761,,,
3,0.701149543,0.777632853,0.854116163,,,
3.01,0.701900569,0.778563883,0.855227197,,,
3.02,0.702648218,0.779489482,0.856330746,,,
3.03,0.703392519,0.780409683,0.857426848,,,
3.04,0.704133498,0.781324518,0.858515537,,,
3.05,0.704871183,0.782234017,0.859596852,,,
3.06,0.705605601,0.783138214,0.860670828,,,
3.07,0.706336778,0.78403714,0.861737502,,,
3.08,0.707064738,0.784930826,0.862796913,,,
3.09,0.707789509,0.785819303,0.863849097,,,
3.1,0.708511114,0.786702603,0.864894092,,,
3.11,0.709229578,0.787580757,0.865931936,,,
3.12,0.709944925,0.788453796,0.866962667,,,
3.13,0.710657178,0.78932175,0.867986322,,,
3.14,0.71136636,0.79018465,0.869002941,,,
3.15,0.712072494,0.791042528,0.870012561,,,
3.16,0.712775603,0.791895412,0.871015222,,,
3.17,0.713475708,0.792743334,0.87201096,,,
3.18,0.714172831,0.793586324,0.872999817,,,
3.19,0.714866994,0.794424411,0.873981829,,,
3.2,0.715558216,0.795257626,0.874957036,,,
3.21,0.71624652,0.796085998,0.875925477,,,
3.22,0.716931924,0.796909557,0.87688719,,,
3.23,0.717614449,0.797728332,0.877842216,,,
3.24,0.718294115,0.798542353,0.878790592,,,
3.25,0.718970941,0.799351649,0.879732358,,,
3.26,0.719644946,0.800156249,0.880667553,,,
3.27,0.720316148,0.800956182,0.881596216,,,
3.28,0.720984566,0.801751476,0.882518386,,,
3.29,0.721650219,0.802542161,0.883434103,,,
3.3,0.722313124,0.803328265,0.884343405,,,
3.31,0.722973299,0.804109815,0.885246331,,,
3.32,0.723630761,0.804886841,0.886142921,,,
3.33,0.724285528,0.805659371,0.887033214,,,
3.34,0.724937616,0.806427432,0.887917248,,,
3.35,0.725587042,0.807191052,0.888795063,,,
3.36,0.726233822,0.80795026,0.889666697,,,
3.37,0.726877974,0.808705082,0.89053219,,,
3.38,0.727519512,0.809455546,0.891391579,,,
3.39,0.728158453,0.810201679,0.892244905,,,
3.4,0.728794811,0.810943508,0.893092204,,,
3.41,0.729428604,0.811681061,0.893933517,,,
3.42,0.730059845,0.812414364,0.894768882,,,
3.43,0.73068855,0.813143443,0.895598336,,,
3.44,0.731314734,0.813868327,0.896421919,,,
3.45,0.731938411,0.81458904,0.897239668,,,
3.46,0.732559596,0.815305609,0.898051623,,,
3.47,0.733178302,0.816018061,0.898857819,,,
3.48,0.733794545,0.816726421,0.899658297,,,
3.49,0.734408338,0.817430715,0.900453093,,,
3.5,0.735019694,0.81813097,0.901242245,,,
3.51,0.735628628,0.81882721,0.902025791,,,
3.52,0.736235153,0.819519461,0.902803768,,,
3.53,0.736839283,0.820207748,0.903576214,,,
3.54,0.737441029,0.820892098,0.904343166,,,
3.55,0.738040407,0.821572534,0.90510466,,,
3.56,0.738637427,0.822249081,0.905860735,,,
3.57,0.739232104,0.822921765,0.906611426,,,
3.58,0.739824449,0.82359061,0.907356771,,,
3.59,0.740414475,0.82425564,0.908096805,,,
3.6,0.741002196,0.824916881,0.908831566,,,
3.61,0.741587621,0.825574355,0.909561089,,,
3.62,0.742170765,0.826228088,0.910285411,,,
3.63,0.742751639,0.826878103,0.911004567,,,
3.64,0.743330254,0.827524424,0.911718594,,,
3.65,0.743906623,0.828167075,0.912427527,,,
3.66,0.744480756,0.828806079,0.913131401,,,
3.67,0.745052667,0.82944146,0.913830252,,,
3.68,0.745622366,0.83007324,0.914524115,,,
3.69,0.746189864,0.830701444,0.915213025,,,
3.7,0.746755172,0.831326095,0.915897017,,,
3.71,0.747318302,0.831947214,0.916576125,,,
3.72,0.747879265,0.832564825,0.917250384,,,
3.73,0.748438072,0.83317895,0.917919829,,,
3.74,0.748994733,0.833789613,0.918584493,,,
3.75,0.74954926,0.834396835,0.91924441,,,
3.76,0.750101662,0.835000638,0.919899614,,,
3.77,0.75065195,0.835601045,0.920550139,,,
3.78,0.751200136,0.836198077,0.921196019,,,
3.79,0.751746229,0.836791757,0.921837286,,,
3.8,0.752290239,0.837382106,0.922473973,,,
3.81,0.752832177,0.837969146,0.923106114,,,
3.82,0.753372053,0.838552897,0.923733742,,,
3.83,0.753909876,0.839133382,0.924356888,,,
3.84,0.754445658,0.839710622,0.924975586,,,
3.85,0.754979408,0.840284637,0.925589867,,,
3.86,0.755511135,0.840855449,0.926199763,,,
3.87,0.756040849,0.841423078,0.926805307,,,
3.88,0.756568561,0.841987546,0.92740653,,,
3.89,0.757094279,0.842548871,0.928003464,,,
3.9,0.757618013,0.843107076,0.928596139,,,
3.91,0.758139774,0.84366218,0.929184587,,,
3.92,0.758659569,0.844214204,0.929768838,,,
3.93,0.759177408,0.844763166,0.930348925,,,
3.94,0.759693302,0.845309089,0.930924876,,,
3.95,0.760207258,0.84585199,0.931496722,,,
3.96,0.760719286,0.84639189,0.932064495,,,
3.97,0.761229396,0.846928809,0.932628223,,,
3.98,0.761737595,0.847462766,0.933187936,,,
3.99,0.762243894,0.847993779,0.933743664,,,
4,0.762748301,0.848521869,0.934295437,,,
4.01,0.763250825,0.849047054,0.934843283,,,
4.02,0.763751474,0.849569353,0.935387232,,,
4.03,0.764250258,0.850088785,0.935927313,,,
4.04,0.764747185,0.850605369,0.936463554,,,
4.05,0.765242264,0.851119124,0.936995984,,,
4.06,0.765735503,0.851630067,0.937524631,,,
4.07,0.766226911,0.852138217,0.938049523,,,
4.08,0.766716497,0.852643593,0.938570688,,,
4.09,0.767204268,0.853146212,0.939088155,,,
4.1,0.767690233,0.853646092,0.93960195,,,
4.11,0.768174401,0.854143251,0.940112101,,,
4.12,0.76865678,0.854637708,0.940618636,,,
4.13,0.769137378,0.855129479,0.941121581,,,
4.14,0.769616202,0.855618582,0.941620962,,,
4.15,0.770093263,0.856105035,0.942116808,,,
4.16,0.770568566,0.856588855,0.942609144,,,
4.17,0.771042121,0.857070059,0.943097996,,,
4.18,0.771513936,0.857548664,0.943583392,,,
4.19,0.771984017,0.858024687,0.944065356,,,
4.2,0.772452375,0.858498144,0.944543914,,,
4.21,0.772919015,0.858969054,0.945019093,,,
4.22,0.773383946,0.859437431,0.945490916,,,
4.23,0.773847176,0.859903294,0.945959411,,,
4.24,0.774308713,0.860366657,0.946424601,,,
4.25,0.774768564,0.860827538,0.946886513,,,
4.26,0.775226736,0.861285953,0.947345169,,,
4.27,0.775683239,0.861741917,0.947800595,,,
4.28,0.776138078,0.862195447,0.948252816,,,
4.29,0.776591262,0.862646558,0.948701855,,,
4.3,0.777042798,0.863095267,0.949147736,,,
4.31,0.777492694,0.863541589,0.949590484,,,
4.32,0.777940956,0.863985539,0.950030121,,,
4.33,0.778387593,0.864427133,0.950466672,,,
4.34,0.778832612,0.864866386,0.95090016,,,
4.35,0.77927602,0.865303314,0.951330608,,,
4.36,0.779717824,0.865737931,0.951758039,,,
4.37,0.780158031,0.866170253,0.952182475,,,
4.38,0.78059665,0.866600295,0.95260394,,,
4.39,0.781033686,0.867028071,0.953022456,,,
4.4,0.781469147,0.867453596,0.953438045,,,
4.41,0.78190304,0.867876885,0.953850729,,,
4.42,0.782335373,0.868297952,0.954260531,,,
4.43,0.782766152,0.868716812,0.954667472,,,
4.44,0.783195384,0.869133479,0.955071574,,,
4.45,0.783623076,0.869547967,0.955472858,,,
4.46,0.784049235,0.86996029,0.955871346,,,
4.47,0.784473868,0.870370463,0.956267059,,,
4.48,0.784896982,0.8707785,0.956660018,,,
4.49,0.785318583,0.871184413,0.957050243,,,
4.5,0.785738679,0.871588218,0.957437757,,,
4.51,0.786157276,0.871989927,0.957822578,,,
4.52,0.786574381,0.872389554,0.958204728,,,
4.53,0.786990001,0.872787113,0.958584226,,,
4.54,0.787404142,0.873182618,0.958961094,,,
